15926
15920
15921
15921
15922
15920
15920
15921
15918
15917
15916
15916
15915
15918
15925
15934
15939
15941
15946
15950
15952
15953
15956
15959
15964
15967
15970
15972
15979
15988
15997
16006
16006
15995
15978
15967
15961
15958
15961
15964
15959
15945
15931
15924
15916
15917
15919
15926
15934
15948
15959
15967
15972
15976
15977
15980
15980
15983
15993
16002
16009
16015
16022
16030
16028
16032
16033
16022
16004
15992
15983
15975
15969
15966
15960
15952
15942
15933
15928
15931
15937
15935
15927
15935
15955
15963
15954
15949
15950
15948
15935
15924
15919
15920
15920
15925
15931
15932
15932
15938
15945
15956
15963
15965
15961
15953
15946
15941
15938
15941
15944
15948
15947
15939
15937
15939
15944
15943
15944
15948
15957
15958
15956
15952
15954
15955
15953
15952
15955
15956
15964
15971
15978
15982
15984
15995
16006
16015
16009
15992
15973
15961
15954
15948
15946
15947
15944
15945
15942
15940
15938
15938
15934
15938
15946
15960
15971
15975
15975
15974
15977
15978
15976
15975
15978
15982
15987
15990
15997
16006
16017
16023
16028
16022
16003
15978
15963
15955
15947
15945
15941
15938
15933
15928
15923
15922
15922
15922
15929
15941
15957
15971
15977
15977
15973
15972
15970
15970
15974
15983
15991
15998
16002
16004
15999
15984
15974
15977
15979
15980
15976
15971
15971
15969
15968
15967
15963
15960
15957
15953
15951
15949
15944
15939
15934
15915
15899
15899
15912
15927
15935
15940
15941
15938
15937
15939
15940
15943
15947
15955
15964
15973
15977
15976
15972
15971
15973
15975
15975
15971
15965
15959
15957
15955
15955
15954
15952
15947
15942
15940
15941
15943
15947
15951
15958
15962
15968
15974
15976
15978
15978
15979
15979
15978
15979
15978
15980
15979
15979
15980
15980
15979
15978
15977
15975
15974
15972
15976
15976
15978
15977
15973
15979
15986
15985
15982
15983
15987
15989
15988
15982
15978
15978
15979
15975
15971
15971
15975
15983
15985
15977
15973
15971
15976
15978
15971
15967
15964
15973
15977
15970
15965
15960
15958
15957
15957
15961
15959
15956
15951
15951
15950
15956
15957
15950
15946
15945
15944
15941
15937
15931
15933
15942
15953
15957
15958
15957
15955
15952
15945
15937
15932
15928
15925
15923
15920
15919
15914
15910
15910
15909
15908
15910
15910
15914
15928
15936
15943
15948
15954
15959
15964
15962
15955
15946
15932
15919
15913
15910
15910
15918
15917
15910
15908
15909
15906
15900
15893
15885
15879
15876
15871
15870
15898
16035
16217
16307
16350
16126
16103
16021
15976
15956
15960
15973
15991
16004
16013
15996
15981
16019
16014
15964
15915
15893
15881
15856
15830
15827
15829
15808
15789
15766
15745
15738
15730
15722
15717
15704
15698
15702
15711
15734
15760
15779
15805
15833
15859
15891
15959
16068
16097
16119
16142
16164
16181
16198
16211
16207
16194
16180
16165
16158
16160
16151
16147
16152
16141
16142
16140
16142
16141
16146
16156
16154
16138
16122
16103
16084
16071
16069
16075
16079
16085
16089
16097
16096
16091
16088
16093
16099
16104
16101
16097
16092
16087
16081
16074
16062
16050
16045
16043
16047
16053
16062
16075
16086
16091
16093
16094
16093
16091
16088
16089
16086
16084
16083
16079
16076
16075
16072
16071
16067
16067
16066
16067
16066
16066
16067
16065
16062
16062
16061
16056
16055
16058
16058
16055
16058
16056
16056
16056
16058
16057
16056
16058
16060
16059
16060
16061
16061
16061
16060
16061
16062
16061
16062
16062
16063
16063
16063
16064
16062
16063
16063
16064
16063
16067
16066
16067
16068
16070
16069
16068
16069
16070
16070
16072
16071
16073
16073
16073
16077
16077
16079
16078
16079
16079
16080
16081
16082
16080
16081
16082
16081
16082
16082
16085
16085
16085
16084
16086
16085
16085
16085
16086
16084
16085
16088
16089
16088
16089
16087
16087
16087
16088
16087
16085
16086
16088
16087
16089
16090
16089
16089
16089
16090
16092
16092
16092
16092
16092
16093
16096
16096
16096
16097
16096
16095
16096
16094
16094
16096
16096
16095
16098
16099
16098
16099
16100
16099
16101
16099
16100
16102
16100
16102
16102
16100
16092
16089
16090
16088
16086
16086
16089
16089
16091
16090
16092
16092
16094
16093
16095
16097
16098
16099
16100
16097
16098
16097
16097
16098
16098
16098
16100
16100
16100
16098
16098
16098
16099
16100
16101
16100
16100
16102
16101
16101
16100
16101
16101
16102
16103
16104
16103
16101
16102
16102
16102
16102
16102
16102
16102
16103
16104
16104
16104
16104
16105
16104
16105
16104
16104
16104
16103
16103
16104
16105
16105
16107
16104
16103
16105
16105
16106
16105
16103
16104
16105
16103
16103
16105
16105
16106
16106
16109
16108
16108
16108
16106
16105
16107
16106
16106
16106
16105
16104
16104
16104
16104
16103
16103
16103
16102
16101
16103
16102
16102
16102
16102
16103
16102
16103
16102
16100
16100
16100
16098
16099
16100
16099
16099
16099
16097
16097
16096
16095
16096
16095
16095
16094
16094
16094
16094
16093
16092
16092
16093
16093
16092
16093
16093
16092
16092
16092
16093
16092
16093
16092
16092
16091
16092
16091
16090
16091
16092
16092
16091
16090
16089
16089
16090
16090
16090
16089
16090
16090
16090
16089
16090
16090
16091
16091
16091
16091
16091
16091
16091
16092
16091
16093
16091
16092
16091
16091
16091
16091
16090
16091
16092
16091
16094
16094
16094
16097
16099
16103
16103
16105
16107
16110
16110
16110
16109
16108
16106
16106
16105
16105
16105
16106
16106
16106
16107
16107
16109
16107
16107
16108
16108
16109
16110
16111
16110
16111
16109
16109
16109
16107
16108
16109
16110
16109
16109
16109
16108
16109
16108
16110
16110
16110
16111
16111
16111
16112
16111
16113
16112
16111
16111
16110
16108
16107
16104
16101
16101
16103
16104
16104
16105
16107
16107
16105
16105
16104
16104
16104
16103
16103
16103
16104
16105
16104
16104
16105
16104
16105
16103
16104
16104
16105
16106
16104
16104
16106
16105
16102
16103
16104
16105
16105
16106
16105
16107
16106
16104
16105
16103
16104
16104
16105
16106
16107
16106
16105
16105
16104
16105
16105
16106
16105
16105
16104
16104
16104
16105
16105
16106
16105
16105
16106
16106
16104
16104
16104
16104
16107
16110
16115
16123
16139
16143
16145
16144
16141
16140
16132
16123
16118
16114
16111
16109
16105
16105
16103
16101
16100
16100
16100
16100
16099
16098
16098
16096
16097
16097
16097
16098
16099
16099
16099
16097
16098
16097
16097
16097
16098
16098
16098
16097
16095
16094
16095
16095
16094
16095
16094
16094
16093
16094
16093
16093
16093
16093
16094
16094
16094
16093
16093
16094
16093
16093
16093
16094
16095
16094
16091
16091
16090
16089
16090
16090
16090
16092
16091
16088
16089
16087
16087
16087
16087
16087
16088
16088
16089
16087
16087
16088
16088
16088
16089
16088
16089
16088
16088
16087
16088
16090
16089
16089
16090
16089
16090
16090
16092
16090
16090
16090
16091
16091
16091
16091
16091
16091
16090
16091
16092
16093
16094
16093
16095
16094
16096
16095
16096
16095
16095
16095
16094
16093
16095
16095
16094
16094
16094
16094
16093
16092
16092
16092
16094
16096
16097
16096
16096
16096
16097
16095
16096
16096
16096
16095
16095
16094
16095
16095
16096
16095
16095
16097
16097
16098
16097
16097
16097
16097
16096
16097
16097
16096
16096
16095
16097
16100
16102
16103
16103
16103
16105
16106
16104
16106
16107
16105
16105
16105
16104
16104
16105
16105
16104
16106
16106
16106
16106
16105
16107
16107
16107
16106
16106
16106
16105
16105
16104
16104
16104
16103
16103
16103
16102
16103
16102
16101
16102
16104
16105
16106
16106
16105
16102
16102
16101
16100
16100
16101
16101
16102
16102
16101
16102
16102
16103
16104
16104
16105
16104
16102
16104
16103
16102
16103
16101
16101
16100
16100
16099
16099
16100
16099
16100
16100
16100
16099
16100
16099
16098
16099
16099
16099
16100
16101
16100
16100
16100
16099
16099
16099
16099
16100
16099
16098
16098
16097
16097
16097
16097
16097
16099
16097
16098
16099
16098
16100
16099
16100
16100
16099
16099
16099
16098
16099
16099
16100
16100
16100
16099
16098
16098
16098
16097
16098
16098
16098
16098
16097
16096
16099
16099
16099
16100
16100
16099
16100
16098
16098
16097
16096
16096
16097
16098
16097
16097
16097
16097
16097
16097
16097
16098
16099
16099
16097
16098
16097
16098
16098
16097
16099
16098
16097
16097
16097
16096
16097
16097
16098
16099
16098
16099
16099
16098
16098
16098
16098
16098
16097
16097
16097
16097
16096
16096
16097
16096
16095
16097
16097
16097
16098
16098
16098
16096
16095
16095
16095
16094
16092
16094
16093
16093
16093
16093
16091
16092
16092
16092
16091
16092
16094
16094
16095
16093
16092
16090
16090
16090
16090
16090
16090
16090
16090
16090
16088
16089
16089
16089
16089
16089
16090
16090
16090
16089
16090
16088
16089
16089
16089
16089
16088
16088
16088
16086
16085
16085
16084
16085
16086
16086
16086
16087
16087
16088
16088
16087
16085
16084
16084
16083
16084
16085
16083
16083
16083
16083
16082
16082
16080
16081
16081
16081
16082
16083
16082
16081
16080
16080
16079
16079
16080
16079
16078
16077
16077
16076
16077
16077
16076
16077
16076
16078
16079
16078
16077
16077
16076
16077
16077
16075
16075
16075
16075
16073
16074
16074
16074
16074
16073
16074
16074
16075
16077
16076
16075
16074
16075
16073
16073
16073
16073
16073
16072
16072
16070
16072
16070
16069
16070
16070
16071
16074
16074
16073
16073
16072
16071
16070
16070
16071
16070
16070
16069
16069
16069
16067
16068
16068
16068
16069
16068
16069
16071
16071
16070
16070
16069
16069
16069
16067
16067
16065
16064
16065
16064
16064
16064
16063
16062
16063
16062
16063
16064
16064
16067
16067
16066
16065
16065
16063
16064
16063
16065
16063
16063
16062
16062
16061
16061
16063
16063
16062
16063
16063
16063
16065
16065
16064
16066
16065
16064
16064
16065
16065
16066
16065
16064
16065
16064
16063
16064
16063
16062
16061
16062
16065
16063
16064
16065
16065
16063
16064
16063
16064
16065
16066
16065
16067
16067
16068
16068
16067
16068
16067
16065
16065
16064
16066
16066
16066
16065
16066
16066
16066
16067
16066
16066
16065
16065
16065
16064
16065
16067
16067
16067
16068
16069
16069
16069
16069
16068
16067
16067
16067
16067
16068
16068
16068
16069
16069
16068
16068
16068
16070
16069
16070
16072
16075
16075
16074
16074
16074
16073
16074
16074
16074
16074
16073
16073
16073
16072
16072
16072
16074
16075
16074
16077
16078
16078
16076
16076
16077
16078
16076
16077
16078
16076
16078
16076
16076
16076
16076
16076
16077
16076
16077
16076
16078
16079
16080
16080
16078
16078
16078
16077
16078
16079
16079
16080
16079
16079
16078
16077
16077
16078
16078
16079
16080
16078
16078
16079
16078
16077
16079
16078
16079
16078
16077
16077
16078
16078
16080
16079
16080
16080
16080
16080
16079
16080
16079
16080
16080
16080
16084
16093
16101
16104
16105
16105
16103
16103
16099
16095
16093
16091
16091
16091
16090
16090
16090
16088
16086
16087
16087
16087
16087
16086
16086
16086
16087
16086
16086
16086
16087
16088
16090
16090
16093
16091
16090
16090
16089
16089
16090
16090
16090
16090
16089
16089
16090
16088
16087
16088
16089
16088
16089
16090
16089
16089
16090
16090
16089
16087
16088
16087
16088
16087
16087
16087
16087
16088
16088
16086
16086
16087
16088
16089
16087
16088
16088
16088
16088
16088
16087
16088
16088
16088
16087
16085
16085
16085
16085
16086
16088
16085
16083
16082
16082
16083
16084
16085
16086
16087
16087
16085
16085
16083
16084
16083
16083
16083
16082
16083
16086
16089
16098
16107
16114
16120
16090
16089
16086
16087
16088
16086
16086
16084
16080
16078
16073
16072
16069
16069
16068
16067
16066
16064
16064
16065
16063
16063
16064
16067
16068
16068
16066
16060
16058
16060
16063
16060
16062
16061
16061
16062
16061
16060
16058
16050
16048
16044
16047
16045
16042
16039
16040
16041
16041
16043
16055
16064
16069
16070
16070
16067
16062
16057
16053
16049
16048
16049
16048
16047
16048
16050
16050
16049
16047
16040
16037
16040
16049
16058
16062
16065
16073
16067
16063
16064
16071
16076
16079
16086
16093
16092
16095
16090
16084
16079
16076
16075
16068
16075
16119
16157
16169
16172
16173
16162
16135
16106
16083
16073
16069
16065
16069
16074
16079
16084
16089
16095
16097
16097
16095
16091
16083
16077
16071
16066
16062
16062
16064
16069
16072
16071
16067
16061
16056
16054
16054
16054
16054
16054
16059
16062
16062
16065
16067
16070
16072
16073
16073
16070
16068
16066
16064
16063
16065
16069
16073
16074
16075
16073
16071
16066
16065
16065
16062
16058
16055
16052
16053
16052
16053
16051
16054
16058
16062
16062
16062
16063
16061
16062
16063
16069
16076
16081
16089
16090
16090
16087
16086
16084
16083
16081
16082
16081
16083
16083
16085
16081
16080
16077
16075
16078
16081
16084
16086
16088
16093
16092
16092
16094
16095
16095
16096
16097
16097
16098
16098
16094
16092
16089
16094
16096
16097
16097
16098
16098
16097
16097
16097
16097
16095
16098
16098
16092
16088
16085
16084
16086
16087
16088
16094
16129
16150
16138
16100
16029
15952
15914
15894
15894
15896
15882
15833
15792
15776
15754
15720
15675
15561
15426
15369
15349
15339
15343
15345
15342
15313
15301
15303
15304
15257
15234
15240
15234
15237
15246
15259
15274
15269
15242
15216
15195
15172
15163
15177
15188
15194
15189
15201
15204
15215
15197
15168
15161
15164
15166
15171
15166
15172
15177
15168
15158
15142
15124
15123
15138
15149
15148
15137
15127
15127
15124
15124
15121
15126
15142
15152
15156
15149
15138
15143
15139
15132
15130
15128
15115
15110
15119
15132
15132
15128
15124
15125
15132
15143
15158
15175
15191
15214
15239
15252
15257
15267
15277
15288
15294
15304
15316
15332
15355
15382
15410
15438
15455
15461
15459
15464
15468
15477
15484
15491
15497
15504
15512
15509
15494
15485
15482
15487
15496
15509
15520
15531
15542
15548
15550
15552
15555
15559
15560
15560
15557
15564
15577
15609
15643
15676
15708
15735
15763
15771
15773
15784
15789
15794
15788
15768
15754
15750
15746
15740
15738
15730
15720
15715
15717
15720
15723
15723
15727
15725
15722
15721
15724
15728
15735
15741
15744
15745
15745
15746
15748
15748
15747
15748
15749
15753
15753
15754
15754
15756
15758
15758
15759
15763
15767
15769
15770
15770
15771
15772
15771
15772
15774
15777
15780
15780
15782
15781
15781
15783
15783
15785
15784
15785
15784
15785
15786
15784
15786
15786
15786
15789
15791
15792
15796
15797
15798
15799
15799
15799
15801
15801
15801
15801
15803
15804
15805
15806


























































































































15914
15914
15913
15913
15914
15914
15913
15915
15917
15921
15926
15929
15932
15931
15931
15931
15931
15934
15937
15940
15942
15943
15944
15947
15950
15954
15956
15957
15960
15961
15962
15962
15962
15960
15960
15961
15962
15961
15960
15960
15961
15963
15966
15970
15976
15976
15976
15975
15975
15973
15973
15973
15974
15974
15972
15972
15970
15970
15971
15971
15970
15970
15969
15971
15972
15974
15974
15973
15974
15973
15974
15974
15973
15974
15975
15975
15977
15976
15977
15975
15975
15975
15977
15978
15980
15982
15981
15981
15980
15982
15982
15983
15982
15982
15982
15982
15980
15981
15981
15982
15984
15986
15985
15984
15984
15984
15984
15984
15984
15986
15986
15985
15983
15980
15979
15978
15976
15975
15973
15972
15971
15968
15967
15968
15967
15964
15962
15961
15960
15962
15962
15962
15963
15964
15967
15968
15970
15969
15968
15966
15967
15965
15964
15965
15966
15968
15969
15968
15968
15967
15968
15968
15971
15970
15971
15971
15971
15973
15973
15974
15975
15975
15976
15976
15974
15971
15967
15965
15963
15963
15966
15970
15973
15973
15972
15970
15967
15965
15966
15969
15971
15974
15974
15973
15974
15972
15971
15971
15971
15973
15976
15978
15978
15978
15978
15978
15978
15979
15978
15979
15978
15976
15976
15973
15973
15972
15973
15973
15971
15972
15973
15973
15975
15975
15975
15976
15975
15973
15973
15973
15973
15974
15972
15971
15970
15968
15968
15967
15966
15969
15970
15972
15971
15971
15971
15970
15968
15965
15966
15965
15964
15965
15966
15964
15964
15964
15964
15964
15963
15965
15966
15966
15965
15963
15962
15961
15960
15960
15960
15960
15959
15959
15959
15960
15960
15960
15961
15963
15960
15962
15960
15962
15962
15962
15962
15961
15960
15960
15958
15958
15955
15957
15954
15955
15955
15953
15952
15951
15950
15950
15949
15948
15947
15948
15949
15952
15952
15950
15949
15950
15949
15948
15948
15946
15947
15945
15945
15946
15946
15947
15947
15947
15946
15949
15947
15947
15949
15953
15955
15956
15955
15954
15954
15955
15955
15953
15954
15954
15953
15950
15950
15949
15948
15947
15946
15946
15944
15943
15945
15947
15948
15949
15948
15947
15947
15946
15946
15946
15947
15947
15947
15948
15946
15946
15945
15943
15943
15942
15941
15941
15941
15943
15941
15941
15940
15941
15942
15941
15941
15943
15942
15942
15939
15940
15937
15936
15935
15934
15933
15934
15935
15935
15937
15938
15936
15936
15935
15935
15935
15935
15936
15935
15935
15935
15935
15935
15935
15935
15935
15934
15934
15935
15935
15937
15937
15936
15933
15933
15930
15929
15928
15927
15927
15926
15924
15923
15922
15920
15921
15920
15920
15919
15919
15922
15922
15921
15919
15917
15916
15914
15914
15916
15915
15916
15914
15913
15913
15912
15911
15911
15910
15911
15911
15912
15913
15914
15912
15911
15910
15909
15908
15910
15909
15910
15911
15913
15915
15916
15919
15920
15919
15920
15920
15923
15925
15926
15926
15923
15923
15923
15923
15922
15923
15924
15922
15922
15921
15921
15920
15921
15921
15921
15921
15921
15923
15924
15922
15921
15920
15918
15916
15917
15916
15917
15916
15915
15914
15913
15912
15912
15911
15910
15909
15911
15914
15914
15913
15912
15911
15909
15908
15907
15909
15909
15908
15908
15907
15906
15905
15906
15906
15904
15905
15906
15907
15907
15906
15904
15906
15904
15904
15904
15903
15902
15901
15899
15900
15899
15899
15899
15899
15900
15902
15905
15904
15904
15902
15903
15903
15906
15906
15908
15907
15908
15907
15906
15906
15905
15903
15903
15905
15905
15906
15908
15906
15906
15905
15905
15904
15905
15906
15906
15906
15905
15904
15903
15904
15903
15903
15905
15906
15907
15909
15909
15908
15907
15906
15905
15904
15905
15904
15904
15904
15903
15903
15902
15902
15902
15902
15902
15902
15904
15906
15904
15903
15902
15900
15899
15900
15901
15901
15901
15899
15899
15899
15899
15898
15898
15898
15898
15900
15901
15902
15901
15900
15900
15899
15900
15899
15900
15898
15897
15896
15896
15896
15896
15896
15896
15895
15896
15897
15899
15900
15900
15898
15899
15897
15898
15896
15896
15897
15897
15895
15896
15896
15897
15895
15895
15895
15895
15898
15899
15900
15900
15899
15897
15897
15899
15898
15898
15898
15898
15897
15897
15896
15896
15897
15897
15897
15898
15897
15898
15900
15900
15900
15898
15897
15896
15897
15897
15897
15897
15896
15896
15895
15895
15895
15895
15892
15893
15894
15894
15895
15896
15896
15893
15895
15895
15894
15895
15896
15894
15896
15894
15892
15891
15892
15891
15890
15891
15891
15890
15892
15895
15893
15893
15892
15892
15892
15890
15889
15890
15889
15890
15888
15888
15889
15887
15887
15886
15887
15887
15888
15890
15889
15888
15887
15888
15886
15885
15886
15885
15886
15884
15885
15885
15884
15885
15884
15884
15886
15885
15885
15888
15889
15888
15887
15887
15887
15886
15886
15888
15887
15887
15886
15888
15887
15888
15886
15887
15886
15887
15888
15889
15889
15889
15888
15887
15888
15889
15888
15889
15889
15890
15888
15888
15888
15888
15888
15888
15888
15889
15889
15891
15891
15891
15889
15890
15890
15891
15890
15890
15890
15890
15889
15888
15888
15886
15886
15886
15886
15887
15889
15890
15890
15889
15889
15888
15887
15888
15889
15889
15888
15887
15887
15887
15887
15886
15886
15887
15888
15891
15890
15890
15888
15889
15888
15890
15890
15891
15892
15894
15893
15892
15891
15892
15891
15893
15890
15889
15887
15886
15884
15882
15880
15880
15882
15884
15886
15889
15891
15894
15895
15894
15894
15894
15894
15894
15893
15895
15895
15894
15892
15891
15891
15891
15884
15886
15884
15882
15883
15886
15887
15888
15880
15880
15880
15880
15885
15890
15892
15891
15890
15888
15884
15880
15880
15878
15876
15875
15874
15874
15872
15873
15876
15877
15881
15882
15879
15876
15876
15875
15874
15872
15870
15868
15865
15864
15863
15860
15858
15858
15857
15858
15863
15868
15873
15875
15877
15880
15883
15886
15888
15890
15892
15894
15898
15900
15901
15897
15891
15884
15880
15876
15876
15878
15877
15880
15881
15881
15883
15883
15885
15886
15887
15889
15890
15892
15896
15898
15899
15899
15900
15902
15904
15906
15907
15907
15906
15905
15905
15904
15901
15898
15896
15896
15894
15893
15892
15891
15891
15889
15890
15891
15892
15893
15891
15891
15889
15888
15887
15885
15883
15883
15882
15882
15881
15880
15881
15881
15880
15880
15880
15882
15884
15888
15887
15886
15886
15885
15885
15885
15884
15883
15881
15880
15878
15878
15879
15879
15879
15880
15878
15878
15880
15881
15883
15881
15881
15881
15880
15879
15882
15882
15882
15881
15879
15878
15880
15881
15882
15880
15881
15879
15879
15879
15882
15884
15883
15883
15884
15886
15886
15886
15886
15887
15886
15887
15886
15886
15885
15885
15885
15884
15884
15884
15885
15887
15889
15888
15888
15887
15887
15887
15887
15887
15890
15889
15889
15889
15890
15889
15889
15888
15889
15888
15889
15890
15890
15890
15891
15889
15891
15892
15891
15891
15891
15891
15889
15890
15888
15887
15887
15886
15888
15889
15893
15895
15895
15895
15894
15894
15894
15894
15894
15894
15894
15893
15892
15891
15891
15892
15894
15899
15898
15900
15901
15902
15903
15902
15901
15901
15901
15899
15899
15899
15900
15898
15898
15897
15896
15897
15894
15896
15894
15895
15897
15896
15896
15895
15894
15892
15892
15893
15896
15898
15902
15899
15898
15901
15902
15902
15902
15900
15900
15900
15901
15900
15902
15902
15901
15900
15899
15902
15903
15907
15912
15915
15916
15917
15918
15923
15928
15932
15936
15944
15951
15958
15965
15971
15973
15975
15973
15979
15984
15981
15953
15932
15934
15948
15956
15962
15971
15983
15990
15989
15986
15977
15969
15966
15965
15962
15966
15971
15974
15978
15978
15974
15972
15967
15962
15961
15958
15952
15946
15942
15938
15936
15938
15941
15952
15958
15960
15960
15959
15962
15961
15959
15957
15963
15977
15986
15991
16001
16006
16011
16012
16013
16014
16023
16033
16037
16039
16043
16042
16040
16037
16036
16032
16032
16030
16029
16028
16026
16023
16021
16018
16016
16015
16016
16017
16017
16014
16013
16013
16015
16015
16015
16016
16015
16014
16013
16013
16011
16010
16012
16013
16014
16014
16014
16015
16015
16015
16016
16017
16016
16015
16014
16013
16014
16014
16015
16019
16019
16020
16021
16019
16019
16019
16018
16015
16012
16010
16009
16010
16008
16007
16009
16010
16014
16014
16016
16019
16019
16020
16020
16021
16024
16025
16026
16026
16028
16027
16029
16028
16027
16028
16028
16029
16030
16032
16032
16033
16033
16033
16033
16033
16031
16029
16030
16031
16030
16030
16031
16032
16033
16033
16037
16039
16042
16041
16044
16044
16044
16045
16045
16048
16049
16050
16050
16049
16050
16047
16044
16046
16047
16047
16052
16065
16077
16079
16071
16067
16062
16055
16049
16043
16042
16039
16037
16038
16038
16036
16035
16036
16037
16038
16040
16042
16044
16043
16042
16041
16042
16041
16041
16042
16041
16041
16040
16037
16039
16040
16039
16042
16048
16057
16064
16066
16064
16056
16039
16024
16005
15991
15981
15982
15984
15980
15974
15970
15963
15957
15947
15939
15936
15933
15929
15926
15923
15924
15924
15921
15918
15917
15918
15921
15922
15922
15922
15922
15920
15920
15920
15918
15918
15917
15915
15916
15914
15916
15914
15909
15907
15905
15907
15907
15908
15913
15917
15920
15922
15923
15923
15921
15920
15917
15913
15909
15905
15902
15899
15896
15893
15895
15897
15896
15896
15894
15894
15894
15894
15893
15893
15892
15892
15890
15890
15891
15890
15892
15891
15891
15890
15889
15889
15888
15888
15889
15888
15889
15889
15890
15891
15889
15887
15886
15885
15885
15885
15886
15886
15886
15887
15886
15885
15885
15885
15883
15884
15884
15883
15882
15882
15882
15882
15883
15882
15884
15886
15885
15883
15880
15877
15878
15886
15885
15883
15884
15885
15886
15886
15887
15888
15887
15887
15887
15888
15890
15892
15894
15895
15895
15895
15893
15894
15893
15891
15891
15891
15891
15890
15891
15892
15892
15893
15894
15893
15894
15896
15896
15898
15899
15899
15899
15898
15899
15897
15899
15901
15900
15902
15904
15904
15905
15906
15907
15907
15907
15907
15907
15909
15910
15910
15911
15909
15911
15910
15912
15914
15917
15919
15918
15917
15919
15919
15920
15925
15926
15927
15926
15926
15926
15927
15926
15925
15925
15924
15921
15923
15922
15923
15921
15919
15918
15919
15919
15919
15919
15921
15925
15932
15942
15948
15947
15947
15947
15945
15947
15947
15948
15950
15957
15957
15944
15933
15924
15913
15909
15899
15880
15861
15851
15851
15852
15853
15850
15849
15838
15828
15818
15814
15814
15812
15803
15793
15783
15779
15778
15778
15780
15777
15774
15770
15768
15766
15763
15765
15767
15767
15764
15762
15761
15760
15767
15771
15768
15766
15767
15769
15771
15778
15781
15787
15793
15796
15793
15796
15804
15812
15815
15816
15816
15818
15821
15817
15819
15833
15844
15854
15859
15860
15857
15847
15842
15836
15826
15819
15813
15814
15817
15823
15829
15820
15811
15808
15806
15811
15817
15802
15790
15792
15793
15788
15783
15781
15779
15771
15762
15757
15751
15747
15747
15751
15754
15756
15760
15760
15761
15761
15761
15762
15765
15768
15771
15774
15781
15796
15811
15821
15828
15829
15829
15829
15822
15816
15812
15813
15816
15819
15819
15820
15823
15826
15831
15835
15834
15830
15828
15831
15836
15842
15844
15849
15852
15855
15863
15866
15863
15867
15845
15811
15780
15736
15704
15679
15620
15585
15576
15531
15455
15369
15332
15312
15307
15357
15404
15464
15496
15500
15508
15530
15565
15596
15604
15602
15612
15632
15646
15655
15663
15682
15706
15728
15758
15793
15819
15828
15837
15844
15837
15821
15818
15828
15839
15852
15857
15863
15874
15877
15868
15850
15840
15836
15838
15838
15837
15840
15848
15859
15865
15872
15874
15879
15881
15880
15873
15863
15852
15844
15836
15834
15830
15828
15828
15832
15834
15831
15823
15816
15812
15806
15803
15800
15796
15791
15792
15791
15790
15789
15789
15793
15790
15790
15787
15789
15791
15789
15791
15792
15796
15794
15794
15795
15798
15801
15804
15812
15813
15815
15814
15812
15811
15812
15815
15817
15821
15821
15826
15827
15831
15834
15834
15837
15836
15840
15837
15837
15843
15847
15847
15846
15848
15843
15841
15841
15841
15844
15846
15849
15847
15849
15847
15845
15844
15843
15843
15841
15845
15846
15848
15850
15850
15855
15857
15859
15859
15861
15862
15865
15869
15870
15873
15873
15873
15874
15874
15875
15877
15878
15879
15883
15883
15883
15883
15885
15887
15884
15882
15879
15877
15877
15879
15882
15881
15886
15885
15886
15884
15888
15890
15887
15889
15891
15894
15892
15893
15892
15892
15895
15888
15882
15877
15875
15871
15868
15863
15858
15860
15861
15863
15863
15864
15860
15859
15856
15851
15850
15847
15846
15843
15841
15842
15842
15841
15842
15843
15842
15843
15843
15842
15842
15840
15839
15838
15837
15834
15837
15838
15839
15843
15845
15849
15849
15849
15851
15849
15854
15855
15855
15856
15857
15855
15856
15857
15858
15860
15861
15865
15863
15863
15863
15860
15862
15861
15866
15870
15872
15871
15870
15867
15863
15865
15864
15869
15874
15873
15870
15866
15862
15856
15856
15854
15854
15854
15854
15858
15860
15863
15861
15861
15860
15860
15860
15861
15863
15863
15867
15867
15865
15863
15864
15863
15862
15864
15866
15869
15867
15869
15868
15867
15868
15867
15869
15870
15871
15870
15872
15874
15874
15876
15877
15877
15875
15873
15873
15874
15879
15880
15881
15881
15880
15880
15882
15883
15884
15887
15886
15886
15886
15886
15885
15884
15884
15884
15886
15885
15886
15886
15889
15891
15892
15892
15890
15890
15890
15889
15888
15889
15891
15890
15892
15890
15891
15890
15889
15889
15888
15891
15893
15895
15892
15890
15891
15889
15890
15889
15890
15889
15887
15887
15887
15886
15887
15889
15887
15888
15885
15884
15886
15887
15889
15887
15886
15885
15883
15878
15878
15878
15877
15878
15875
15876
15874
15874
15874
15873
15874
15874
15876
15876
15881
15883
15882
15884
15885
15884
15885
15884
15884
15883
15885
15884
15888
15887
15886
15886
15885
15886
15885
15887
15891
15896
15894
15895
15896
15896
15899
15900
15901
15901
15902
15903
15903
15903
15904
15907
15908
15907
15908
15907
15906
15909
15912
15913
15913
15910
15911
15911
15910
15910
15911
15911
15910
15910
15909
15909
15908
15908
15909
15907
15907
15906
15904
15905
15907
15908
15907
15909
15908
15908
15906
15907
15905
15906
15906
15902
15903
15900
15900
15899
15897
15901
15899
15901
15896
15896
15898
15898
15896
15896
15897
15897
15900
15897
15896
15895
15893
15895
15896
15896
15895
15894
15893
15892
15892
15891
15894
15896
15898
15896
15895
15897
15893
15895
15895
15899
15898
15898
15896
15894
15894
15893
15894
15894
15893
15890
15889
15891
15894
15893
15895
15897
15896
15896
15896
15895
15895
15894
15895
15895
15894
15892
15892
15893
15893
15893
15894
15897
15898
15900
15901
15902
15902
15901
15903
15903
15904
15902
15899
15898
15896
15894
15893
15894
15893
15892
15892
15890
15894
15897
15897
15894
15895
15894
15891
15893
15891
15893
15893
15893
15890
15890
15888
15887
15890
15889
15891
15890
15890
15888
15890
15890
15889
15891
15889
15889
15889
15887
15887
15887
15886
15884
15887
15884
15884
15881
15880
15878
15877
15880
15881
15882
15880
15880
15879
15878
15878
15877
15880
15880
15879
15878
15876
15877
15877
15878
15877
15877
15875
15874
15877
15880
15882
15883
15884
15883
15882
15881
15881
15881
15881
15883
15884
15884
15882
15880
15881
15878
15880
15877
15878
15878
15881
15881
15882
15884
15885
15888
15888
15888
15888
15888
15888
15887
15889
15887
15888
15888
15887
15885
15884
15885
15884
15886
15887
15889
15886
15885
15884
15883
15883
15881
15884
15880
15881
15879
15879
15879
15881
15879
15878
15876
15876
15876
15879
15883
15886
15889
15895
15900
15905
15908
15904
15894
15885
15879
15873
15867
15856
15847
15837
15827
15818
15811
15807
15808
15813
15823
15827
15831
15833
15834
15837
15839
15838
15837
15837
15838
15839
15836
15838
15843
15848
15853
15853
15849
15852
15852
15847
15844
15842
15842
15841
15836
15836
15836
15838
15840
15840
15844
15844
15843
15840
15839
15836
15835
15834
15832
15826
15819
15816
15810
15807
15804
15804
15803
15802
15806
15806
15806
15811
15814
15813
15809
15807
15808
15809
15811
15811
15809
15810
15808
15810
15813
15815
15814
15814
15813
15816
15816
15816
15815
15815
15815
15816
15818
15817
15816
15816
15816
15817
15818
15818
15818
15822
15826
15831
15838
15843
15844
15839
15831
15827
15823
15821
15823
15826
15824
15821
15827
15836
15837
15834
15834
15831
15826
15826
15826
15829
15836
15838
15835
15831
15827
15828
15831
15834
15835
15834
15834
15834
15835
15834
15835
15838
15840
15846
15851
15855
15861
15864
15868
15872
15877
15880
15881
15880
15878
15878
15875
15873
15873
15874
15875
15875
15874
15873
15871
15867
15864
15860
15859
15857
15855
15855
15856
15856
15854
15854
15851
15850
15849
15848
15847
15845
15846
15846
15845
15845
15844
15843
15842
15840
15839
15839
15842
15843
15845
15845
15844
15844
15846
15846
15847
15848
15846
15845
15844
15843
15841
15841
15840
15839
15839
15839
15839
15840
15842
15842
15842
15842
15841
15840
15839
15837
15838
15839
15839
15838
15836
15836
15834
15833
15833
15834
15833
15834
15835
15836
15837
15836
15836
15834
15835
15834
15835
15834
15834
15836
15835
15834
15834
15834
























































































































































15875
15877
15876
15879
15891
15910
15911
15908
15909
15910
15910
15909
15911
15913
15912
15906
15895
15885
15869
15856
15849
15845
15840
15840
15838
15834
15827
15826
15822
15815
15818
15820
15817
15815
15809
15805
15803
15808
15815
15817
15816
15813
15816
15818
15819
15820
15820
15820
15820
15821
15824
15828
15855
15886
15894
15900
15911
15909
15909
15913
15912
15905
15893
15882
15871
15860
15855
15850
15851
15852
15857
15854
15852
15856
15861
15860
15858
15865
15868
15857
15839
15829
15836
15849
15853
15852
15845
15839
15841
15847
15849
15845
15842
15847
15850
15854
15870
15894
15910
15907
15924
15934
15933
15933
15928
15924
15914
15903
15892
15881
15869
15861
15856
15855
15861
15863
15864
15862
15861
15864
15865
15869
15868
15862
15858
15859
15858
15846
15841
15838
15834
15826
15826
15828
15828
15833
15832
15836
15836
15836
15835
15834
15835
15835
15836
15836
15836
15839
15842
15851
15871
15888
15905
15920
15928
15925
15923
15920
15919
15920
15923
15924
15922
15918
15916
15914
15911
15908
15904
15899
15890
15887
15886
15884
15881
15880
15879
15875
15876
15875
15876
15875
15876
15877
15877
15879
15880
15882
15883
15884
15888
15889
15890
15889
15888
15889
15887
15885
15886
15887
15885
15887
15889
15889
15889
15889
15889
15889
15890
15890
15890
15890
15889
15888
15888
15889
15889
15889
15889
15888
15887
15887
15886
15885
15887
15887
15885
15881
15879
15880
15880
15880
15878
15880
15879
15877
15877
15879
15879
15877
15878
15876
15873
15871
15872
15869
15871
15872
15873
15875
15873
15873
15874
15874
15874
15873
15875
15873
15870
15869
15867
15867
15865
15862
15860
15857
15856
15855
15856
15860
15864
15864
15862
15862
15864
15863
15858
15855
15856
15860
15859
15858
15856
15855
15855
15855
15855
15854
15852
15849
15852
15853
15852
15851
15851
15851
15850
15848
15846
15845
15848
15850
15848
15848
15849
15848
15842
15843
15846
15850
15852
15851
15850
15852
15854
15854
15855
15852
15851
15850
15852
15852
15849
15849
15849
15851
15851
15850
15849
15849
15847
15847
15848
15850
15854
15852
15853
15852
15851
15849
15848
15849
15849
15848
15849
15849
15848
15847
15848
15847
15847
15847
15845
15845
15849
15850
15851
15852
15852
15851
15853
15852
15852
15852
15854
15852
15852
15850
15849
15847
15846
15846
15847
15848
15848
15850
15851
15850
15852
15851
15850
15849
15849
15850
15848
15849
15849
15849
15847
15848
15848
15847
15846
15846
15845
15846
15849
15847
15848
15848
15849
15850
15847
15845
15846
15849
15850
15847
15844
15846
15848
15848
15847
15846
15846
15846
15847
15848
15847
15846
15845
15845
15843
15844
15843
15842
15841
15839
15835
15832
15832
15829
15829
15830
15830
15831
15832
15833
15832
15832
15831
15832
15832
15832
15831
15833
15833
15831
15830
15829
15827
15827
15827
15826
15826
15825
15826
15828
15828
15828
15826
15826
15823
15823
15822
15822
15821
15821
15823
15824
15824
15824
15821
15821
15820
15819
15818
15817
15813
15813
15814
15814
15816
15812
15810
15810
15808
15806
15807
15808
15809
15808
15806
15805
15807
15808
15810
15808
15810
15813
15821
15829
15837
15843
15851
15850
15853
15858
15862
15864
15863
15860
15853
15847
15841
15837
15835
15827
15820
15816
15812
15809
15814
15819
15815
15811
15807
15814
15817
15820
15827
15827
15823
15828
15829
15822
15816
15812
15814
15822
15827
15824
15819
15819
15820
15821
15821
15820
15818
15818
15817
15818
15825
15851
15878
15877
15878
15879
15880
15883
15881
15876
15865
15853
15839
15826
15816
15811
15806
15802
15801
15803
15800
15795
15793
15793
15792
15792
15799
15801
15801
15790
15783
15778
15776
15769
15770
15770
15772
15776
15776
15771
15768
15766
15766
15768
15768
15770
15772
15770
15772
15781
15795
15806
15815
15820
15817
15815
15823
15832
15834
15835
15837
15842
15846
15849
15845
15839
15839
15840
15842
15843
15841
15839
15834
15835
15835
15836
15836
15838
15839
15843
15848
15852
15856
15857
15855
15850
15848
15848
15848
15852
15853
15852
15847
15844
15840
15836
15832
15831
15833
15833
15828
15823
15816
15808
15809
15811
15810
15810
15806
15805
15803
15798
15794
15784
15780
15778
15779
15773
15765
15760
15761
15764
15765
15763
15761
15759
15760
15756
15757
15756
15755
15754
15756
15758
15761
15769
15769
15771
15770
15772
15782
15804
15816
15823
15828
15827
15827
15827
15830
15833
15835
15834
15831
15828
15818
15806
15791
15780
15774
15767
15761
15767
15763
15761
15757
15756
15755
15755
15751
15749
15745
15741
15734
15732
15728
15723
15723
15717
15698
15678
15672
15673
15677
15676
15671
15668
15667
15665
15665
15668
15674
15683
15686
15691
15714
15731
15739
15757
15759
15751
15750
15749
15745
15740
15734
15727
15722
15713
15703
15696
15692
15694
15696
15698
15696
15694
15696
15705
15713
15722
15744
15782
15839
15889
15917
15916
15920
15928
15946
15939
15869
15886
15859
15778
15742
15831
15943
15962
15974
15972
15957
15949
15946
15944
15925
15882
15848
15828
15820
15820
15818
15818
15820
15822
15826
15823
15818
15819
15819
15827
15835
15842
15836
15831
15828
15828
15825
15822
15826
15831
15830
15826
15817
15816
15812
15803
15794
15788
15781
15774
15768
15764
15763
15760
15756
15749
15748
15764
15774
15772
15775
15776
15779
15784
15790
15797
15802
15806
15802
15796
15791
15786
15783
15783
15785
15786
15790
15797
15801
15801
15802
15800
15800
15803
15803
15806
15815
15854
15923
15969
15976
15969
15955
15937
15922
15907
15891
15876
15858
15850
15846
15842
15835
15826
15818
15814
15814
15817
15819
15819
15815
15816
15822
15835
15846
15856
15867
15871
15866
15852
15831
15809
15795
15793
15792
15793
15794
15817
15841
15848
15853
15860
15865
15866
15863
15864
15864
15862
15855
15857
15859
15856
15850
15849
15847
15843
15839
15835
15828
15823
15820
15819
15820
15824
15829
15841
15848
15849
15851
15849
15844
15836
15831
15829
15825
15819
15828
15838
15842
15842
15840
15842
15841
15845
15845
15842
15842
15843
15852
15874
15891
15903
15929
15958
15967
15974
15986
15991
15991
15993
15996
15996
15995
15993
15995
15999
16003
16003
15998
15994
15994
15994
15993
15989
15982
15980
15978
15977
15973
15973
15973
15973
15973
15972
15973
15974
15974
15975
15973
15974
15973
15971
15970
15970
15975
15983
15988
15988
15989
15988
15987
15986
15987
15988
15989
15991
15991
15993
15996
16004
16003
15999
15992
15988
15985
15984
15980
15975
15972
15970
15966
15962
15959
15959
15958
15957
15954
15952
15951
15951
15952
15953
15946
15935
15929
15925
15920
15912
15903
15895
15889
15887
15895
15912
15926
15929
15941
15944
15941
15941
15939
15942
15949
15957
15964
15968
15967
15965
15961
15956
15951
15944
15933
15918
15905
15896
15886
15875
15865
15863
15869
15879
15893
15912
15922
15931
15937
15940
15939
15935
15930
15928
15927
15929
15930
15929
15929
15930
15929
15929
15924
15922
15920
15916
15914
15911
15909
15906
15905
15904
15903
15903
15903
15906
15913
15920
15923
15925
15925
15929
15932
15939
15943
15944
15945
15947
15949
15949
15949
15951
15950
15950
15952
15954
15956
15957
15957
15957
15957
15956
15959
15962
15964
15962
15962
15963
15963
15960
15955
15952
15946
15944
15942
15943
15945
15948
15947
15948
15948
15949
15952
15954
15957
15960
15965
15970
15975
15977
15979
15981
15981
15985
15993
15995
15996
15994
15993
15991
15988
15985
15984
15982
15978
15976
15975
15973
15971
15968
15967
15963
15962
15966
15968
15970
15972
15975
15978
15982
15986
15990
15993
15996
15995
15997
15997
16000
15999
16000
16000
15999
15996
15992
15989
15985
15984
15986
15984
15984
15985
15983
15984
15985
15988
15990
15994
15995
15996
15997
15998
15997
15996
15997
15997
15996
15996
15992
15992
15991
15992
15990
15991
15990
15990
15991
15991
15989
15986
15987
15988
15989
15990
15985
15984
15983
15983
15982
15981
15981
15980
15980
15979
15980
15981
15983
15980
15980
15977
15978
15977
15978
15976
15976
15975
15976
15976
15977
15977
15978
15978
15976
15977
15979
15979
15980
15981
15983
15982
15982
15980
15979
15979
15981
15982
15980
15979
15979
15980
15981
15980
15981
15982
15986
15987
15989
15992
15993
15993
15995
15994
15993
15990
15990
15990
15989
15988
15990
15991
15992
15993
15993
15992
15994
15995
15997
15997
15999
16000
15999
15997
15998
15999
15999
15999
15998
15998
15999
15998
15997
15998
15996
15996
15993
15989
15986
15982
15975
15967
15961
15958
15955
15953
15955
15959
15966
15971
15976
15979
15981
15984
15986
15986
15986
15991
16003
16011
16011
16012
16006
15991
15978
15971
15973
15972
15968
15958
15950
15946
15946
15948
15948
15949
15953
15954
15957
15957
15957
15958
15960
15962
15965
15967
15970
15974
15980
15978
15979
15978
15978
15976
15975
15973
15972
15970
15967
15961
15956
15953
15950
15948
15948
15948
15951
15951
15955
15956
15956
15956
15956
15955
15955
15955
15955
15956
15957
15955
15956
15958
15960
15961
15961
15959
15956
15953
15953
15953
15954
15956
15959
15962
15963
15964
15965
15968
15970
15971
15971
15970
15972
15973
15974
15975
15976
15976
15976
15978
15977
15980
15984
15984
15985
15985
15981
15981
15980
15982
15987
15992
15997
15998
15993
15987
15982
15974
15965
15959
15957
15955
15955
15958
15963
15970
15978
15987
15990
15989
15986
15980
15977
15972
15969
15964
15959
15953
15948
15947
15950
15952
15955
15958
15961
15966
15968
15970
15973
15973
15971
15968
15967
15962
15954
15948
15944
15941
15939
15939
15941
15941
15943
15946
15949
15953
15956
15959
15962
15965
15969
15973
15979
15984
15987
15986
15985
15983
15982
15981
15980
15975
15972
15965
15958
15953
15950
15949
15947
15946
15949
15950
15955
15959
15965
15970
15972
15974
15973
15976
15975
15974
15972
15972
15970
15969
15969
15967
15965
15961
15957
15954
15952
15951
15952
15952
15953
15953
15955
15955
15956
15959
15963
15966
15969
15968
15965
15967
15970
15968
15970
15970
15970
15971
15973
15973
15973
15973
15971
15971
15971
15971
15973
15972
15973
15972
15972
15971
15970
15970
15972
15972
15973
15973
15973
15974
15975
15978
15976
15977
15976
15976
15974
15975
15974
15975
15975
15974
15975
15974
15973
15974
15975
15974
15974
15974
15974
15975
15976
15976
15977
15975
15974
15975
15974
15975
15974
15974
15974
15975
15977
15976
15977
15977
15977
15975
15977
15977
15977
15979
15978
15977
15976
15976
15975
15974
15974
15975
15975
15975
15974
15975
15974
15974
15975
15975
15975
15975
15975
15976
15979
15978
15978
15978
15978
15977
15976
15977
15977
15979
15977
15977
15976
15975
15977
15976
15975
15974
15977
15975
15977
15977
15977
15976
15975
15974
15974
15973
15974
15974
15973
15973
15973
15972
15972
15973
15972
15971
15973
15973
15975
15976
15975
15975
15974
15972
15971
15971
15971
15971
15970
15970
15970
15969
15969
15970
15969
15967
15966
15967
15968
15970
15970
15970
15969
15967
15966
15965
15965
15965
15964
15963
15962
15962
15960
15959
15958
15958
15959
15958
15959
15960
15960
15961
15958
15959
15959
15956
15956
15957
15956
15955
15956
15957
15957
15956
15956
15956
15955
15955
15955
15954
15955
15957
15958
15956
15954
15954
15952
15951
15952
15952
15949
15947
15947
15948
15949
15948
15948
15947
15946
15947
15947
15948
15951
15953
15953
15952
15951
15950
15950
15949
15949
15950
15951
15949
15951
15950
15950
15950
15950
15950
15950
15950
15950
15953
15953
15952
15951
15950
15949
15948
15949
15950
15952
15951
15951
15951
15951
15952
15951
15952
15953
15955
15956
15959
15959
15957
15957
15956
15956
15955
15955
15954
15955
15955
15954
15953
15953
15952
15953
15953
15953
15953
15955
15956
15956
15956
15955
15955
15956
15954
15954
15954
15955
15955
15955
15954
15953
15952
15952
15952
15952
15953
15955
15956
15955
15953
15953
15951
15949
15949
15949
15949
15950
15948
15948
15948
15946
15946
15945
15945
15946
15946
15950
15951
15949
15947
15946
15946
15945
15946
15947
15946
15947
15944
15946
15945
15944
15944
15943
15944
15944
15944
15946
15948
15948
15949
15947
15945
15944
15944
15943
15944
15944
15944
15942
15942
15942
15941
15941
15942
15940
15941
15941
15942
15947
15949
15950
15949
15949
15947
15946
15947
15947
15948
15948
15949
15948
15947
15945
15945
15944
15944
15943
15943
15942
15944
15945
15946
15946
15944
15943
15943
15942
15943
15943
15943
15943
15943
15943
15943
15942
15942
15942
15943
15942
15943
15944
15946
15942
15937
15934
15931
15931
15930
15931
15931
15933
15935
15938
15937
15939
15942
15942
15945
15947
15950
15954
15958
15959
15957
15954
15952
15950
15949
15946
15945
15941
15937
15933
15931
15931
15931
15930
15930
15932
15938
15945
15948
15951
15952
15952
15954
15956
15957
15958
15956
15955
15953
15951
15949
15948
15950
15951
15951
15950
15953
15954
15954
15951
15949
15943
15939
15936
15934
15934
15932
15931
15929
15930
15929
15928
15927
15929
15929
15931
15931
15932
15931
15932
15933
15933
15933
15936
15940
15944
15946
15945
15943
15941
15939
15940
15941
15943
15945
15949
15950
15949
15946
15945
15945
15947
15946
15946
15944
15941
15938
15937
15936
15937
15938
15939
15943
15946
15948
15947
15946
15945
15945
15942
15942
15942
15943
15945
15945
15944
15944
15942
15940
15940
15939
15940
15942
15944
15944
15943
15941
15941
15941
15942
15942
15941
15942
15940
15939
15937
15937
15938
15936
15936
15937
15940
15943
15944
15947
15951
15952
15950
15948
15947
15949
15951
15951
15950
15947
15945
15941
15937
15934
15934
15935
15938
15940
15940
15941
15942
15941
15942
15941
15941
15941
15939
15939
15940
15940
15939
15939
15940
15941
15941
15942
15940
15940
15939
15940
15940
15938
15939
15939
15937
15939
15938
15938
15938
15937
15936
15938
15940
15940
15940
15938
15939
15938
15937
15937
15937
15938
15938
15938
15937
15937
15937
15936
15938
15937
15940
15943
15941
15941
15939
15940
15939
15940
15939
15939
15940
15939
15940
15938
15939
15940
15939
15940
15940
15940
15941
15942
15945
15946
15944
15943
15942
15942
15943
15942
15944
15943
15943
15942
15941
15939
15941
15940
15940
15941
15944
15944
15945
15945
15946
15947
15947
15949
15947
15947
15947
15945
15946
15945
15945
15945
15944
15942
15941
15943
15946
15947
15947
15946
15945
15944
15944
15944
15945
15945
15945
15945
15943
15943
15942
15941
15941
15940
15942
15944
15945
15946
15944
15944
15944
15942
15942
15942
15941
15942
15940
15939
15940
15939
15940
15939
15938
15938
15939
15943
15944
15945
15944
15942
15942
15942
15944
15945
15947
15948
15950
15950
15950
15948
15941
15936
15934
15937
15940
15942
15944
15942
15943
15944
15943
15945
15949
15952
15955
15957
15959
15959
15959
15962
15967
15974
15982
15987
15990
15993
16000
16021
16037
16042
16036
16031
16017
15992
15967
15938
15922
15913
15903
15890
15878
15879
15903
15918
15901
15884
15876
15876
15874
15882
15880
15869
15863
15859
15860
15862
15869
15876
15878
15881
15881
15884
15887
15889
15891
15896
15902
15906
15911
15911
15907
15903
15894
15887
15885
15882
15886
15895
15908
15917
15924
15929
15926
15919
15915
15915
15917
15923
15927
15935
15942
15952
15962
15971
15978
15983
15984
15987
15986
15987
15989
15992
15992
15992
15992
15991
15991
15992
15992
15993
15993
15994
15994
15992
15992
15992
15993
15994
15993
15996
16010
16035
16049
16048
16048
16044
16036
16023
15980
15960
15956
15937
15925
15867
15786
15730
15675
15630
15641
15627
15616
15611
15604
15599
15591
15583
15577
15561
15547
15507
15441
15453
15553
15649
16062
16123
16165
16171
15934
15447
15380
15235
15402
15401
15493
15603
15640
15608
15618
15637
15560
15548
15537
15533
15540
15546
15554
15549
15514
15497
15507
15521
15525
15518
15509
15508
15507
15484
15469
15471
15474
15458
15439
15421
15405
15394
15372
15346
15329
15322
15313
15301
15278
15249
15221
15205
15203
15207
15198
15187
15175
15158
15136
15124
15119
15117
15117
15117
15111
15108
15103
15102
15108
15120
15136
15141
15145
15145
15150
15161
15164
15167
15172
15174
15178
15179
15183
15190
15196
15202
15206
15215
15215
15218
15227
15242
15258
15270
15284
15292
15297
15299
15302
15308
15314
15317
15320
15322
15325
15328
15333
15336
15340
15344
15348
15352
15354
15354
15356
15358
15358
15359
15366
15373
15384
15409
15425
15432
15422
15379
15395
15553
15933
16138
16067
15875
15959
16103
16124
15985
15741
15712
15716
15705
15649
15523
15645
15789
15843
15866
15873
15878
15857
15823
15784
15753
15730
15734
15746
15744
15734
15730
15730
15734
15741
15740
15733
15730
15722
15721
15719
15718
15722
15722
15728
15729
15728
15734
15734
15730
15732
15737
15740
15748
15752
15757
15762
15763
15761
15759
15763
15770
15770
15769
15767
15769
15773
15772
15774
15777
15776
15777
15780
15785
15790
15792
15793
15796
15793
15797
15797
15796
15797
15794
15791
15787
15785
15781
15776
15777
15779
15783
15782
15783
15784
15786
15786
15780
15776
15778
15771
15758
15747
15733
15722
15719
15721
15720
15718
15718
15719
15717
15712
15717
15722
15726
15724
15724
15721
15718
15721
15728
15736
15743
15746
15744
15740
15732
15729
15725
15725
15719
15715
15711
15706
15701
15701
15700
15698
15693
15687
15677
15671
15670
15671
15674
15675
15675
15674
15671
15669
15671
15677
15680
15685
15680
15674
15670
15670
15671
15672
15676
15677
15676
15674
15675
15675
15675
15684
15693
15698
15704
15710
15711
15712
15710
15708
15706
15703
15698
15695
15695
15696
15694
15697
15696
15694
15687
15682
15675
15673
15675
15676
15681
15682
15674
15664
15654
15644
15647
15659
15662
15666
15667
15670
15664
15654
15646
15641
15636
15630
15626
15625
15622
15622
15625
15628
15627
15626
15622
15621
15620
15621
15622
15622
15619
15615
15614
15610
15608
15608
15607
15604
15600
15595
15591
15591
15596
15601
15608
15615
15629
15641
15653
15661
15665
15664
15662
15658
15653
15648
15642
15637
15636
15637
15642
15645
15646
15650
15650
15653
15655
15658
15665
15676
15692
15707
15722
15728
15721
15722
15734
15755
15775
15786
15793
15795
15796
15794
15799
15801
15804
15803
15800
15802
15803
15809
15814
15818
15821
15824
15822
15823
15823
15823
15821
15820
15820
15820
15818
15819
15819
15818
15816
15816
15815
15818
15820
15823
15826
15826
15828
15828
15830
15832
15833
15835
15834
15838
15839
15837
15837
15838
15837
15836
15836
15836
15835
15835
15836
15838
15836
15835
15836
15836
15836
15837
15838
15837
15841
15842
15842
15843
15843
15844
15843
15844
15842
15843
15843
15844
15843
15842
15842
15842
15843
15841
15841
15839
15838
15841
15842
15844
15843
15842
15841
15839
15839
15840
15840
15841
15840
15840
15841
15842
15842
15842
15845
15846
15847
15848
15847
15846
15845
15847
15846
15845
15844
15845
15843
15843
15843
15842
15842
15842
15844
15845
15843
15842
15843
15844
15846
15848
15848
15849
15846
15845
15846
15846
15846
15847
15846
15844
15841
15842
15843
15842
15842
15842
15841
15842
15841
15845
15845
15846
15847
15849
15848
15847
15847
15845
15845
15846
15849
15848
15847
15848
15849
15848
15849
15849
15849
15848
15848
15849
15849
15849
15849
15848
15847
15847
15846
15845
15845
15845
15845
15845
15845
15845
15846
15844
15843
15843
15845
15844
15846
15845
15848
15849
15849
15849
15848
15849
15848
15847
15848
15847
15848
15846
15848
15850
15849
15848
15848
15849
15850
15851
15852
15854
15852
15852
15851
15851
15849
15850
15850
15846
15844
15838
15835
15830
15829
15828
15826
15824
15822
15821
15820
15819
15821
15825
15828
15827
15826
15827
15827
15827
15828
15832
15831
15831
15829
15828
15829
15831
15832
15834
15831
15831
15831
15830
15830
15830
15833
15838
15836
15833
15832
15833
15831
15832
15832
15831
15830
15826
15825
15825
15824
15825
15825
15824
15822
15822
15821
15822
15822
15824
15827
15826
15823
15823
15823
15822
15823
15824
15824
15822
15822
15820
15819
15820
15819
15821
15820
15819
15815
15812
15809
15809
15810
15807
15804
15798
15791
15783
15775
15764
15758
15734
15706
15671
15655
15669
15692
15721
15733
15744
15744
15747
15744
15737
15734
15723
15721
15710
15705
15695
15684
15678
15668
15667
15657
15655
15648
15642
15638
15632
15633
15627
15627
15619
15616
15616
15614
15614
15610
15611
15605
15601
15593
15589
15589
15585
15589
15584
15584
15577
15572
15569
15567
15569
15566
15571
15568
15566
15562
15558
15560
15556
15559
15555
15557
15553
15550
15550
15546
15550
15546
15548
15541
15537
15536
15534
15544
15544
15548
15542
15542
15537
15534
15538
15536
15542
15538
15540
15535
15532
15533
15530
15534
15530
15533
15531
15534
15537
15535
15540
15538
15544
15538
15538
15534
15534
15537
15533
15540
15534
15534
15526
15523
15528
15530
15541
15545
15553
15548
15547
15547
15548
15556
15558
15565
15564
15564
15559
15557
15561
15564
15570
15568
15573
15567
15566
15565
15562
15562
15554
15558
15558
15564
15556
15550
15550
15549
15552
15544
15544
15540
15536
15538
15537
15537
15532
15533
15529
15531
15533
15530
15534
15530
15533
15527
15527
15524
15523
15525
15521
15523
15520
15521
15517
15514
15513
15511
15517
15517
15521
15519
15518
15515
15514
15516
15515
15519
15517
15517
15513
15509
15511
15509
15513
15512
15511
15508
15509
15512
15513
15517
15517
15519
15517
15515
15514
15512
15515
15515
15518
15515
15515
15511
15509
15510
15509
15514
15515
15519
15516
15516
15516
15513
15517
15517
15518
15515
15516
15513
15510
15511
15508
15509
15507
15508
15504
15503
15505
15507
15512
15511
15515
15511
15509
15508
15507
15510
15508
15512
15508
15506
15502
15499
15501
15498
15501
15498
15500
15495
15499
15500
15500
15503
15504
15507
15504
15504
15501
15500
15504
15503
15506
15504
15505
15503
15502
15502
15501
15503
15503
15505
15505
15504
15504
15504
15507
15507
15510
15508
15509
15507
15505
15506
15506
15508
15508
15507
15504
15503
15501
15500
15502
15502
15503
15505
15507
15505
15503
15504
15505
15507
15506
15505
15501
15500
15498
15498
15501
15499
15500
15497
15497
15493
15491
15493
15495
15499
15501
15500
15497
15496
15499
15498
15502
15501
15502
15499
15496
15495
15495
15497
15498
15500
15495
15494
15490
15492
15498
15501
15506
15504
15503
15501
15499
15500
15501
15506
15505
15506
15502
15499
15497
15497
15500
15498
15501
15498
15501
15502
15501
15503
15504
15508
15505
15505
15502
15500
15500
15498
15501
15499
15501
15499
15496
15497
15493
15495
15496
15502
15503
15504
15501
15499
15502
15499
15504
15502
15504
15501
15500
15499
15498
15499
15499
15500
15498
15496
15494
15493
15499
15502
15506
15505
15504
15501
15499
15498
15499
15501
15501
15503
15500
15498
15493
15493
15494
15495
15496
15495
15495
15497
15498
15498
15497
15501
15500
15500
15496
15495
15494
15491
15493
15493
15496
15493
15491
15487
15486
15487
15487
15492
15493
15494
15490
15489
15489
15487
15493
15492
15493
15491
15491
15488
15486
15488
15487
15489
15487
15486
15483
15481
15484
15487
15491
15489
15490
15488
15486
15485
15485
15487
15487
15489
15485
15481
15476
15475
15478
15476
15479
15476
15478
15476
15477
15479
15478
15480
15482
15483
15481
15477
15476
15475
15479
15477
15480
15477
15477
15474
15471
15472
15472
15475
15475
15479
15477
15477
15477
15479
15482
15480
15481
15478
15477
15475
15473
15475
15475
15478
15475
15476
15473
15470
15471
15471
15477
15479
15483
15479
15478
15476
15476
15478
15478
15481
15477
15476
15473
15470
15470
15469
15473
15472
15472
15468
15469
15470
15473
15477
15478
15481
15480
15479
15477
15476
15479
15481
15482
15480
15479
15477
15475
15474
15472
15475
15475
15478
15478
15478
15477
15476
15479
15479
15484
15481
15480
15476
15473
15474
15473
15476
15473
15472
15465
15459
15461
15463
15470
15471
15475
15473
15474
15472
15469
15472
15469
15473
15469
15470
15467
15466
15470
15470
15476
15470
15472
15464
15459
15460
15461
15468
15468
15475
15470
15469
15463
15462
15466
15464
15470
15467
15470
15467
15464
15465
15463
15467
15467
15475
15474
15475
15471
15470
15475
15473
15478
15473
15474
15468
15464
15462
15461
15464
15461
15463
15459
15460
15465
15469
15479
15482
15489
15487
15489
15490
15491
15500
15498
15506
15503
15507
15503
15501
15501
15498
15505
15504
15513
15512
15511
15511
15512
15515
15511
15517
15512
15511
15508
15503
15504
15502
15506
15502
15504
15498
15496
15496
15494
15501
15501
15509
15507
15507
15507
15504
15507
15505
15511
15508
15510
15507
15508
15510
15508
15516
15512
15516
15512
15511
15513
15513
15521
15519
15524
15518
15519
15515
15510
15515
15513
15517
15513
15512
15509
15506
15505
15505
15511
15509
15514
15512
15512
15510
15509
15512
15508
15509
15505
15502
15497
15492
15491
15486
15487
15482
15478
15472
15467
15468
15472
15481
15487
15492
15491
15491
15490
15491
15495
15497
15503
15500
15500
15498
15497
15499
15502
15506
15504
15506
15503
15503
15502
15502
15507
15509
15511
15509
15507
15504
15502
15506
15506
15511
15508
15506
15502
15499
15504
15513
15530
15537
15548
15552
15550
15546
15548
15558
15564
15582
15598
15611
15617
15620
15629
15643
15643
15645
15647
15647
15645
15646
15653
15665
15674
15678
15677
15675
15677
15675
15671
15673
15676
15673
15670
15669
15668
15671
15674
15675
15675
15676
15679
15683
15689
15693
15695
15700
15701
15700
15695
15694
15693
15690
15688
15690
15693
15695
15695
15695
15697
15695
15698
15700
15699
15699
15700
15699
15701
15701
15699
15697
15688
15676
15659
15643
15633
15624
15612
15599
15588
15582
15580
15579
15576
15574
15572
15570
15567
15564
15565
15563
15563
15557
15556
15554
15551
15546
15543
15544
15545
15549
15553
15555
15553
15551
15549
15548
15543
15541
15540
15535
15528
15526
15523
15521
15518
15517
15512
15512
15514
15511
15508
15508
15507
15507
15504
15503
15504
15503
15503
15503
15504
15502
15500
15498
15499
15499
15498
15502
15505
15509
15510
15507
15506
15501
15495
15495
15494
15494
15492
15492
15494
15492
15494
15495
15494
15495
15494
15493
15493
15497
15500
15505
15504
15503
15501
15502
15502
15501
15500
15502
15501
15497
15494
15493
15491
15491
15492
15493
15491
15489
15488
15488
15491
15496
15498
15498
15499
15499
15499
15501
15502
15503
15503
15503
15502
15503
15500
15500
15501
15501
15500
15500
15498
15501
15502
15504
15506
15507
15508
15508
15507
15507
15509
15508
15510
15510
15509
15508
15508
15507
15506
15504
15506
15508
15512
15513
15516
15516
15517
15517
15518
15517
15518
15518
15518
15517
15515
15515
15515
15517
15513
15512
15511
15514
15517
15521
15524
15525
15525
15525
15525
15525
15525
15526
15528
15528
15526
15525
15524
15524
15523
15523
15524
15522
15522
15524
15528
15533
15537
15538
15536
15534
15535
15533
15532
15534
15535
15537
15537
15537
15536
15533
15533
15530
15530
15528
15529
15531
15533
15536
15537
15537
15537
15538
15539
15537
15537
15537
15537
15536
15534
15535
15536
15534
15532
15530
15530
15529
15531
15532
15537
15538
15538
15538
15537
15536
15535
15536
15538
15537
15537
15536
15535
15535
15533
15532
15532
15529
15529
15528
15534
15537
15539
15540
15540
15539
15539
15536
15539
15539
15538
15538
15537
15535
15534
15531
15532
15530
15531
15530
15530
15533
15537
15539
15539
15540
15541
15540
15539
15540
15540
15539
15540
15539
15537
15538
15535
15534
15533
15532
15531
15534
15539
15542
15543
15544
15543
15542
15541
15543
15544
15544
15545
15543
15542
15542
15542
15541
15541
15541
15540
15541
15545
15548
15549
15551
15552
15552
15552
15552
15554
15554
15554
15554
15552
15551
15550
15549
15548
15546
15545
15550
15555
15559
15561
15561
15561
15564
15562
15565
15566
15564
15564
15563
15561
15562
15561
15560
15559
15559
15555
15556
15561
15567
15572
15571
15572
15573
15573
15572
15572
15572
15572
15572
15571
15569
15568
15568
15566
15565
15565
15563
15562
15562
15567
15573
15577
15581
15581
15580
15578
15578
15579
15580
15580
15579
15580
15577
15576
15575
15573
15572
15571
15569
15567
15573
15578
15582
15581
15582
15583
15581
15580
15579
15579
15579
15578
15578
15574
15573
15571
15569
15567
15565
15563
15562
15563
15568
15575
15576
15576
15575
15573
15571
15572
15571
15572
15571
15569
15567
15565
15564
15562
15559
15557
15557
15554
15558
15564
15568
15572
15572
15570
15569
15568
15567
15568
15567
15565
15562
15561
15562
15561
15559
15557
15556
15556
15557
15562
15566
15568
15570
15571
15571
15572
15571
15570
15567
15565
15563
15564
15563
15563
15561
15559
15558
15559
15566
15573
15578
15580
15579
15577
15576
15577
15574
15575
15574
15574
15572
15570
15569
15567
15567
15565
15564
15566
15573
15578
15580
15582
15582
15582
15581
15581
15581
15580
15579
15578
15576
15574
15573
15572
15570
15571
15569
15573
15579
15587
15590
15589
15588
15587
15588
15587
15587
15586
15587
15583
15581
15579
15578
15576
15575
15573
15571
15569
15570
15576
15584
15586
15586
15588
15586
15584
15584
15584
15586
15586
15585
15583
15581
15578
15578
15577
15577
15576
15573
15575
15582
15588
15589
15590
15590
15588
15588
15587
15588
15589
15588
15585
15584
15583
15582
15581
15579
15578
15578
15581
15587
15593
15594
15593
15593
15592
15591
15589
15589
15589
15588
15586
15586
15583
15583
15583
15581
15578
15579
15584
15589
15593
15594
15593
15594
15591
15591
15593
15594
15593
15593
15592
15591
15589
15587
15587
15585
15586
15589
15597
15603
15604
15604
15604
15602
15602
15600
15601
15600
15598
15595
15593
15591
15589
15588
15586
15584
15583
15585
15592
15598
15600
15600
15597
15596
15594
15593
15596
15595
15594
15593
15590
15589
15586
15586
15585
15584
15587
15596
15602
15604
15605
15604
15603
15602
15603
15605
15603
15602
15600
15599
15597
15596
15594
15592
15592
15595
15604
15610
15612
15613
15613
15611
15610
15610
15610
15611
15613
15612
15607
15605
15603
15600
15599
15596
15598
15602
15611
15614
15615
15615
15614
15614
15613
15613
15611
15612
15611
15609
15608
15608
15607
15605
15604
15602
15600
15602
15609
15616
15620
15621
15621
15619
15618
15615
15617
15617
15617
15615
15612
15611
15608
15606
15604
15603
15601
15598
15596
15598
15603
15609
15610
15613
15610
15606
15604
15603
15603
15602
15599
15597
15596
15593
15591
15590
15588
15586
15585
15584
15584
15588
15593
15594
15596
15595
15595
15592
15591
15590
15590
15589
15587
15586
15585
15584
15581
15581
15578
15577
15576
15578
15581
15585
15586
15585
15584
15583
15582
15581
15582
15583
15582
15579
15577
15577
15575
15576
15573
15572
15570
15569
15570
15575
15582
15583
15584
15582
15581
15579
15581
15581
15582
15582
15580
15579
15579
15577
15575
15573
15573
15571
15571
15570
15574
15579
15583
15584
15587
15587
15583
15579
15577
15576
15578
15580
15579
15578
15578
15576
15575
15575
15572
15574
15579
15585
15586
15586
15588
15585
15586
15585
15584
15585
15583
15581
15577
15573
15569
15566
15563
15563
15560
15564
15569
15575
15577
15579
15578
15577
15574
15575
15576
15577
15577
15576
15575
15573
15571
15569
15569
15567
15568
15573
15579
15582
15584
15583
15583
15582
15582
15583
15583
15584
15582
15580
15579
15579
15578
15577
15576
15574
15577
15583
15588
15592
15592
15592
15590
15588
15588
15588
15589
15586
15586
15584
15581
15581
15579
15579
15576
15580
15586
15592
15596
15595
15594
15593
15592
15592
15593
15593
15592
15593
15591
15590
15588
15587
15586
15584
15586
15589
15597
15601
15603
15603
15602
15599
15597
15597
15597
15597
15597
15595
15594
15593
15592
15590
15588
15588
15595
15605
15609
15609
15609
15610
15608
15607
15608
15609
15609
15607
15605
15605
15604
15601
15598
15598
15596
15592
15594
15601
15610
15614
15615
15617
15616
15613
15612
15611
15611
15610
15608
15606
15605
15602
15600
15599
15597
15596
15593
15590
15594
15602
15610
15613
15614
15611
15605
15604
15606
15608
15608
15608
15608
15605
15602
15598
15596
15594
15593
15592
15592
15593
15601
15607
15609
15610
15609
15607
15603
15602
15603
15603
15605
15602
15601
15600
15597
15597
15595
15593
15591
15591
15597
15606
15609
15612
15611
15611
15609
15606
15606
15607
15606
15604
15602
15599
15598
15597
15596
15594
15591
15590
15594
15602
15609
15612
15613
15611
15610
15607
15607
15607
15608
15607
15607
15604
15602
15599
15597
15593
15592
15590
15588
15591
15597
15602
15605
15605
15604
15601
15600
15597
15599
15597
15598
15597
15594
15589
15588
15584
15582
15580
15580
15579
15586
15594
15599
15601
15601
15600
15598
15597
15597
15597
15597
15595
15593
15591
15590
15588
15587
15584
15582
15581
15585
15594
15600
15602
15602
15600
15597
15594
15595
15594
15595
15594
15593
15591
15590
15586
15584
15584
15582
15582
15589
15598
15602
15603
15604
15604
15601
15600
15600
15602
15602
15601
15599
15596
15595
15592
15592
15590
15588
15595
15605
15612
15614
15612
15610
15608
15608
15609
15611
15611
15611
15609
15605
15604
15602
15603
15601
15598
15602
15610
15618
15620
15621
15619
15618
15616
15617
15617
15618
15616
15614
15611
15606
15605
15603
15602
15598
15597
15601
15612
15621
15625
15625
15624
15621
15620
15622
15625
15625
15626
15624
15626
15623
15623
15623
15622
15621
15621
15624
15632
15640
15642
15641
15639
15635
15631
15630
15627
15625
15619
15616
15615
15616
15616
15612
15610
15612
15613
15617
15625
15631
15631
15630
15627
15627
15626
15627
15628
15628
15625
15624
15622
15620
15618
15614
15611
15609
15591
15593
15630
15642
15663
15694
15700
15672
15646
15635
15640
15653
15669
15693
15721
15732
15728
15719
15722
15716
15686
15637
15580
15522
15486
15473
15461
15453
15448
15447
15443
15438
15435
15433
15433
15435
15450
15466
15477
15484
15486
15486
15482
15479
15482
15486
15488
15487
15489
15488
15488
15487
15487
15486
15489
15501
15514
15524
15529
15532
15530
15527
15528
15531
15536
15537
15537
15537
15539
15541
15546
15548
15552
15555
15560
15575
15592
15601
15607
15607
15608
15608
15609
15611
15610
15608
15608
15606
15603
15601
15599
15598
15597
15599
15604
15614
15623
15626
15625
15624
15625
15626
15626
15627
15629
15625
15621
15617
15614
15611
15611
15610
15608
15608
15618
15630
15637
15638
15638
15635
15632
15629
15629
15630
15629
15626
15625
15623
15618
15617
15615
15614
15617
15629
15638
15641
15642
15641
15642
15644
15647
15650
15650
15648
15645
15640
15636
15636
15633
15633
15635
15646
15658
15664
15667
15666
15665
15661
15660
15659
15661
15660
15657
15655
15653
15650
15647
15644
15644
15645
15657
15667
15674
15675
15675
15672
15670
15669
15670
15671
15670
15669
15667
15667
15667
15663
15660
15657
15657
15655
15663
15675
15682
15683
15682
15681
15678
15677
15676
15676
15675
15675
15673
15668
15664
15661
15659
15656
15654
15652
15651
15657
15669
15678
15680
15680
15679
15675
15672
15671
15673
15675
15674
15671
15670
15666
15663
15660
15658
15657
15654
15655
15665
15676
15683
15683
15679
15675
15669
15669
15668
15668
15665
15663
15660
15658
15655
15652
15650
15648
15646
15649
15659
15670
15675
15676
15675
15673
15669
15667
15668
15670
15669
15666
15662
15659
15657
15655
15653
15651
15650
15653
15663
15673
15679
15680
15678
15676
15673
15671
15671
15671
15670
15667
15664
15661
15660
15656
15654
15650
15647
15650
15662
15674
15677
15677
15676
15673
15671
15667
15667
15667
15667
15665
15661
15659
15657
15653
15650
15650
15649
15647
15656
15668
15677
15678
15676
15673
15667
15665
15665
15666
15666
15664
15662
15659
15656
15653
15651
15649
15647
15646
15652
15666
15674
15676
15674
15671
15669
15667
15665
15667
15668
15666
15664
15661
15659
15656
15655
15651
15649
15649
15656
15669
15677
15680
15679
15676
15672
15669
15669
15671
15672
15669
15666
15663
15659
15657
15655
15653
15652
15651
15659
15673
15680
15681
15681
15678
15676
15672
15671
15670
15669
15668
15664
15663
15659
15655
15649
15646
15641
15639
15639
15649
15660
15666
15664
15662
15657
15653
15651
15652
15652
15651
15649
15645
15641
15639
15637
15636
15631
15629
15629
15637
15651
15658
15660
15658
15657
15652
15650
15650
15651
15652
15652
15650
15649
15648
15645
15642
15642
15641
15647
15661
15670
15674
15674
15671
15667
15665
15665
15666
15667
15665
15663
15659
15656
15656
15654
15651
15649
15650
15662
15675
15682
15684
15681
15678
15673
15673
15672
15672
15671
15669
15667
15665
15663
15658
15656
15656
15657
15668
15680
15687
15686
15684
15680
15677
15676
15675
15676
15676
15672
15669
15667
15664
15661
15660
15658
15656
15663
15677
15686
15689
15689
15686
15683
15679
15678
15681
15680
15680
15677
15674
15672
15669
15667
15667
15664
15668
15681
15694
15698
15697
15695
15690
15687
15686
15688
15690
15689
15687
15683
15681
15679
15675
15673
15671
15673
15686
15699
15704
15704
15702
15700
15698
15696
15696
15695
15695
15693
15690
15688
15684
15682
15679
15677
15674
15677
15690
15701
15705
15703
15703
15699
15695
15694
15695
15694
15693
15689
15686
15682
15679
15677
15674
15672
15670
15669
15677
15687
15692
15694
15694
15691
15688
15684
15683
15683
15682
15680
15677
15674
15671
15667
15664
15660
15658
15655
15654
15660
15670
15676
15676
15674
15673
15669
15667
15666
15665
15664
15661
15659
15656
15653
15649
15647
15645
15640
15638
15637
15641
15651
15659
15662
15663
15660
15658
15655
15655
15655
15656
15654
15649
15647
15645
15643
15641
15639
15637
15634
15633
15641
15650
15655
15655
15655
15651
15648
15645
15643
15643
15641
15639
15637
15634
15629
15625
15623
15622
15619
15616
15618
15625
15632
15636
15636
15636
15634
15628
15624
15624
15626
15624
15621
15617
15615
15611
15609
15606
15604
15602
15602
15610
15621
15628
15632
15631
15629
15625
15624
15624
15623
15624
15622
15619
15618
15616
15613
15611
15610
15608
15606
15614
15627
15635
15639
15638
15635
15631
15628
15628
15628
15631
15629
15628
15625
15623
15619
15616
15615
15611
15616
15626
15638
15642
15644
15642
15639
15635
15634
15635
15636
15635
15634
15632
15629
15628
15627
15625
15623
15621
15629
15640
15648
15651
15653
15651
15649
15647
15646
15646
15649
15647
15645
15643
15640
15637
15636
15634
15634
15634
15639
15651
15657
15658
15657
15656
15656
15652
15650
15649
15650
15647
15645
15642
15638
15634
15633
15629
15628
15627
15631
15643
15651
15652
15652
15650
15646
15644
15644
15644
15645
15644
15641
15639
15637
15634
15635
15632
15631
15631
15634
15643
15652
15656
15656
15656
15653
15650
15649
15650
15651
15650
15647
15645
15642
15639
15637
15636
15636
15643
15656
15665
15667
15668
15666
15663
15662
15660
15661
15661
15660
15658
15656
15653
15651
15648
15647
15647
15651
15663
15671
15675
15677
15674
15671
15670
15669
15670
15670
15671
15669
15667
15664
15660
15659
15656
15655
15654
15659
15670
15679
15680
15681
15680
15675
15673
15671
15670
15671
15670
15668
15666
15662
15660
15657
15655
15653
15652
15651
15658
15668
15674
15673
15671
15668
15665
15662
15660
15660
15658
15652
15647
15645
15645
15646
15647
15647
15645
15642
15639
15644
15656
15665
15668
15668
15667
15664
15660
15660
15660
15659
15660
15656
15654
15652
15649
15647
15645
15641
15641
15643
15651
15662
15670
15670
15671
15669
15664
15662
15662
15664
15663
15662
15659
15656
15654
15651
15649
15648
15647
15649
15664
15683
15691
15695
15692
15689
15687
15688
15689
15690
15690
15688
15685
15681
15678
15678
15676
15672
15669
15671
15683
15694
15698
15698
15695
15691
15690
15687
15686
15690
15690
15688
15687
15681
15678
15676
15671
15669
15670
15678
15690
15700
15699
15696
15692
15688
15686
15685
15687
15686
15684
15682
15679
15675
15672
15669
15665
15665
15675
15689
15697
15700
15700
15696
15692
15689
15689
15689
15689
15687
15685
15680
15680
15677
15675
15673
15674
15686
15698
15702
15699
15697
15695
15691
15690
15690
15690
15689
15685
15680
15678
15677
15675
15675
15674
15676
15687
15694
15696
15693
15690
15688
15687
15686
15687
15687
15688
15687
15686
15684
15682
15681
15679
15681
15691
15700
15703
15704
15704
15700
15696
15694
15694
15691
15687
15683
15676
15672
15667
15663
15659
15659
15662
15670
15675
15673
15671
15668
15664
15659
15658
15657
15656
15655
15652
15651
15647
15643
15641
15639
15639
15647
15654
15655
15656
15652
15650
15647
15646
15648
15649
15646
15645
15642
15640
15635
15634
15631
15634
15644
15651
15652
15652
15650
15647
15646
15647
15650
15654
15656
15654
15651
15649
15646
15642
15642
15650
15659
15665
15666
15667
15666
15663
15661
15660
15660
15657
15655
15654
15652
15651
15652
15650
15650
15658
15666
15670
15670
15667
15665
15661
15661
15662
15664
15666
15662
15661
15659
15656
15654
15653
15652
15650
15659
15668
15676
15677
15675
15674
15673
15673
15673
15674
15673
15673
15671
15667
15663
15665
15665
15662
15658
15655
15654
15662
15672
15676
15676
15676
15672
15670
15667
15667
15667
15667
15667
15663
15659
15657
15655
15653
15651
15650
15647
15647
15655
15665
15668
15668
15667
15665
15663
15663
15662
15661
15663
15660
15658
15656
15652
15650
15648
15646
15643
15640
15639
15647
15657
15664
15669
15668
15666
15661
15658
15656
15653
15649
15644
15641
15636
15633
15631
15630
15628
15626
15627
15627
15632
15643
15654
15661
15661
15659
15658
15655
15652
15650
15652
15651
15649
15646
15642
15641
15639
15637
15633
15633
15631
15637
15649
15658
15662
15662
15660
15658
15656
15653
15652
15655
15655
15655
15654
15652
15649
15645
15643
15638
15634
15634
15644
15661
15670
15672
15672
15667
15664
15663
15661
15663
15663
15660
15656
15652
15646
15646
15641
15634
15628
15627
15632
15641
15663
15691
15712
15724
15735
15743
15745
15747
15748
15751
15753
15757
15759
15764
15765
15770
15783
15806
15819
15830
15840
15854
15869
15884
15899
15909
15920
15929
15938
15943
15942
15945
15948
15949
15947
15948
15957
15963
15961
15959
15957
15957
15964
15977
15991
15999
16005
16007
16006
16004
15999
16000
16003
15997
15988
15989
15991
15986
15975
15963
15949
15936
15936
15944
15948
15950
15948
15949
15949
15946
15944
15942
15943
15943
15941
15939
15936
15930
15928
15928
15924
15928
15929
15940
15946
15947
15952
15955
15954
15956
15961
15958
15962
15962
15959
15957
15954
15947
15939
15935
15916
15916
15948
15970
15978
15982
15980
15983
15979
15971
15982
15989
15985
15985
15985
15980
15974
15970
15965
15966
15968
15975
15987
15995
15999
16002
16000
15999
15997
15995
15997
15999
15999
15999
15995
15991
15987
15985
15981
15980
15985
15991
15982
15972
15965
15955
15946
15953
15962
15969
15965
15963
15955
15951
15954
15954
15955
15958
15970
15988
16001
16008
16007
16000
15993
15993
15993
15995
15994
15995
15993
15993
15991
15988
15988
15992
15999
16006
16008
16007
16007
16004
16000
16000
16000
16001
16000
15999
15993
15988
15985
15980
15978
15980
15990
15999
16004
16003
15999
15998
15996
15995
15995
15998
15997
15997
15995
15993
15989
15988
15989
15990
15997
16006
16009
16012
16012
16011
16010
16009
16009
16009
16007
16005
16002
16000
15998
15998
15998
15996
15999
16007
16015
16018
16019
16018
16014
16013
16014
16017
16016
16014
16013
16012
16010
16010
16010
16009
16012
16021
16026
16029
16027
16024
16023
16023
16023
16024
16023
16023
16022
16022
16023
16023
16021
16021
16023
16032
16036
16038
16039
16038
16036
16035
16037
16037
16037
16038
16037
16035
16035
16032
16032
16030
16030
16031
16037
16045
16050
16052
16049
16047
16042
16041
16042
16044
16043
16041
16039
16036
16035
16036
16033
16033
16032
16032
16037
16044
16051
16054
16053
16050
16050
16049
16049
16049
16050
16048
16045
16045
16044
16041
16039
16036
16035
16034
16033
16032
16036
16044
16050
16051
16050
16049
16047
16046
16047
16046
16045
16044
16044
16044
16042
16041
16041
16041
16039
16037
16037
16036
16040
16047
16053
16055
16057
16054
16052
16051
16051
16051
16050
16051
16049
16049
16049
16047
16045
16042
16040
16040
16041
16043
16048
16050
16051
16050
16050
16047
16045
16045
16046
16047
16044
16044
16042
16040
16039
16037
16034
16034
16031
16035
16044
16048
16048
16047
16045
16042
16041
16040
16040
16039
16038
16036
16033
16030
16030
16029
16027
16028
16029
16034
16040
16044
16045
16045
16045
16044
16042
16041
16042
16043
16041
16039
16036
16036
16034
16034
16038
16039
16039
16043
16047
16050
16051
16049
16046
16041
16038
16042
16044
16044
16042
16041
16039
16038
16037
16039
16038
16039
16044
16048
16050
16049
16048
16050
16049
16049
16048
16048
16047
16047
16048
16048
16048
16048
16046
16046
16046
16050
16056
16058
16059
16058
16058
16058
16056
16056
16058
16059
16058
16055
16053
16051
16050
16049
16050
16053
16059
16066
16070
16072
16071
16070
16069
16070
16071
16071
16071
16070
16069
16067
16068
16066
16066
16065
16067
16074
16080
16084
16084
16084
16080
16077
16074
16074
16077
16076
16074
16072
16070
16071
16071
16069
16067
16067
16071
16076
16078
16078
16077
16076
16075
16074
16074
16075
16075
16074
16072
16070
16068
16064
16059
16056
16053
16052
16051
16056
16063
16069
16067
16066
16064
16064
16061
16062
16065
16068
16072
16073
16076
16076
16079
16080
16083
16084
16083
16084
16088
16095
16097
16096
16095
16096
16095
16092
16093
16100
16107
16110
16106
16102
16096
16082
16067
16052
16051
16066
16117
16108
16083
16055
16012
15995
15999
16009
16016
16038
16081
16120
16118
16081
16047
16027
16021
16015
16013
16024
16055
16088
16088
16070
16048
16032
16025
16018
16032
16051
16073
16052
15963
15972
15993
15988
15998
16005
16012
16021
16028
16036
16042
16043
16036
16032
16032
16034
16027
16018
16010
15995
15991
15997
16021
16070
16074
16035
16013
16003
16005
16049
16098
16078
16026
16004
16008
16034
16061
16053
16029
16017
16007
15999
15990
15980
15976
15992
16031
16072
16096
16091
16070
16047
16030
16022
16024
16032
16044
16058
16060
16044
16029
16017
16013
16026
16042
16046
16035
16028
16030
16036
16038
16038
16032
16023
16015
16008
16004
16014
16042
16066
16056
16036
16026
16026
16033
16040
16038
16029
16022
16022
16025
16033
16040
16043
16038
16030
16025
16018
16011
16015
16017
16016
16014
16008
16006
16010
16023
16053
16078
16071
16040
16015
16007
16006
16007
16011
16021
16036
16043
16026
16006
15992
15980
16008
16099
16215
16262
16223
16179
16169
16189
16210
16208
16187
16162
16145
16128
16111
16109
16115
16121
16124
16123
16117
16110
16101
16100
16104
16110
16111
16107
16103
16106
16114
16125
16134
16134
16126
16119
16122
16133
16145
16152
16151
16145
16143
16139
16133
16128
16130
16134
16140
16150
16159
16161
16160
16160
16162
16165
16169
16175
16181
16186
16188
16186
16183
16182
16178
16177
16172
16165
16157
16158
16166
16173
16177
16175
16170
16164
16161
16162
16161
16161
16160
16159
16157
16152
16152
16152
16149
16147
16150
16153
16159
16162
16164
16165
16161
16156
16155
16156
16161
16165
16169
16170
16164
16157
16152
16154
16156
16161
16167
16171
16176
16177
16179
16177
16175
16171
16168
16167
16165
16165
16165
16165
16164
16163
16163
16159
16159
16162
16167
16170
16171
16171
16169
16167
16168
16168
16167
16167
16167
16168
16168
16167
16166
16166
16164
16164
16168
16175
16179
16179
16180
16179
16175
16175
16177
16178
16176
16175
16174
16173
16172
16170
16167
16166
16164
16163
16164
16168
16175
16178
16178
16176
16174
16172
16172
16174
16174
16172
16170
16169
16168
16166
16167
16163
16160
16160
16158
16159
16164
16169
16173
16172
16171
16167
16164
16165
16167
16167
16166
16165
16164
16165
16163
16161
16158
16156
16154
16153
16155
16161
16165
16165
16164
16163
16160
16155
16156
16156
16156
16155
16154
16154
16150
16149
16150
16147
16146
16148
16147
16149
16154
16159
16160
16161
16157
16152
16150
16153
16154
16155
16153
16152
16151
16147
16141
16136
16135
16134
16137
16142
16149
16154
16157
16152
16145
16139
16137
16136
16140
16145
16151
16153
16154
16149
16145
16143
16141
16142
16147
16154
16158
16159
16158
16158
16155
16157
16158
16158
16157
16156
16156
16154
16155
16155
16156
16155
16152
16151
16154
16159
16166
16168
16168
16164
16165
16164
16164
16166
16166
16166
16165
16164
16164
16163
16165
16167
16167
16169
16172
16175
16177
16175
16171
16169
16169
16172
16173
16173
16172
16171
16168
16164
16161
16159
16157
16158
16163
16167
16171
16171
16168
16165
16164
16163
16165
16165
16167
16168
16167
16165
16162
16161
16161
16161
16162
16168
16170
16172
16171
16166
16164
16167
16173
16175
16173
16170
16167
16167
16170
16172
16170
16167
16171
16177
16180
16178
16175
16172
16168
16166
16166
16167
16172
16173
16173
16168
16170
16171
16172
16175
16186
16195
16196
16193
16187
16181
16178
16177
16180
16183
16185
16184
16181
16174
16168
16164
16163
16166
16173
16177
16175
16171
16168
16165
16163
16163
16161
16156
16150
16147
16143
16142
16142
16141
16140
16139
16142
16147
16153
16153
16148
16144
16141
16138
16135
16133
16132
16131
16126
16120
16116
16115
16114
16114
16114
16110
16111
16118
16121
16123
16120
16116
16110
16105
16102
16105
16108
16110
16104
16100
16100
16099
16094
16096
16102
16106
16103
16100
16101
16108
16120
16127
16131
16130
16129
16131
16132
16129
16130
16130
16132
16132
16134
16137
16137
16134
16134
16136
16142
16145
16141
16142
16150
16156
16159
16159
16161
16160
16155
16148
16144
16146
16151
16152
16150
16150
16150
16148
16144
16142
16140
16141
16148
16158
16165
16170
16169
16165
16162
16159
16158
16158
16155
16151
16147
16147
16149
16147
16143
16138
16139
16139
16139
16140
16145
16153
16159
16162
16163
16161
16158
16156
16154
16155
16152
16153
16151
16149
16148
16148
16146
16146
16146
16146
16144
16148
16153
16157
16159
16158
16157
16156
16155
16154
16153
16151
16148
16146
16143
16142
16139
16134
16078
16097
16121
16152
16187
16201
16214
16217
16207
16190
16156
16148
16139
16148
16126
16068
16032
16080
16096
16036
16021
16043
16061
16094
16161
15982
15930
15921
15896
15880
15905
15938
15932
15916
15922
15953
15966
15973
15983
15975
15969
15956
15943
15941
15948
15948
15951
15953
15947
15939
15938
15945
15950
15966
15983
16002
16020
16023
16016
16010
16002
15999
15999
15997
15999
16007
16019
16008
15994
16006
16015
16004
16037
16055
16045
16014
15976
15954
15943
15936
15933
15946
15961
15967
15970
15966
15969
15977
15980
15976
15978
15978
15981
15977
15982
15991
16003
16013
16022
16021
16015
16013
16013
16010
16010
16005
16007
16015
16026
16032
16039
16043
16045
16047
16048
16048
16044
16038
16037
16031
16025
16022
16018
16010
16000
15997
16002
16011
16017
16014
16009
16006
16009
16005
16002
15996
15993
15987
15980
15981
15978
15969
15967
15964
15963
15962
15964
15971
15983
15988
15999
16012
16015
16018
16027
16028
16028
16031
15998
15962
15952
15915
15873
15873
15880
15888
15893
15898
15896
15888
15882
15898
15928
15961
15948
15846
15775
15734
15757
15824
15947
16030
16041
16054
16067
16075
16079
16088
16104
16155
16196
16212
16208
16194
16173
16154
16143
16150
16138
16134
16132
16122
16091
16017
15995
15972
15933
15891
15886
15897
15918
15958
16000
16031
16036
16038
16049
16053
16041
16024
16022
16020
16012
16009
16013
16017
16017
16014
16008
16000
15990
15979
15972
15965
15961
15953
15943
15928
15918
15918
15924
15938
15969
16003
16014
16024
16046
16059
16052
16037
16013
15981
15950
15932
15923
15921
15921
15939
16026
16209
16386
16462
16473
16424
16376
16343
16305
16227
16141
16112
16101
16079
16058
16042
16065
16090
16024
15996
16040
16088
16126
16116
16054
15997
15964
15941
15920
15909
15904
15905
15915
15925
15952
15983
16009
16046
16092
16123
16132
16111
16080
16042
16013
15990
15977
15966
15961
15958
15959
15960
15960
15964
15999
16073
16069
16060
16070
16037
16018
16014
16007
16001
15997
15999
15999
16000
15998
15995
15994
15991
15991
15989
15998
15998
15983
15974
15979
15982
15981
15984
15985
15983
15979
15976
15975
15978
15982
15990
15983
15975
15971
15972
15971
15969
15970
15971
15971
15973
15974
15974
15973
15968
15964
15963
15964
15964
15965
15965
15965
15963
15962
15962
15961
15960
15959
15959
15961
15965
15967
15968
15967
15964
15963
15962
15963
15964
15964
15964
15966
15966
15967
15966
15966
15964
15964
15967
15970
15972
15973
15973
15972
15972
15970
15970
15969
15969
15967
15969
15972
15973
15971
15966
15963
15959
15959
15959
15963
15964
15964
15965
15966
15965
15966
15967
15966
15965
15965
15965
15961
15958
15959
15962
15964
15965
15966
15967
15965
15964
15963
15963
15962
15961
15964
15965
15964
15964
15960
15961
15961
15962
15960
15961
15963
15965
15967
15967
15966
15966
15966
15964
15963
15963
15968
15965
15966
15965
15963
15960
15959
15958
15956
15954
15954
15953
15952
15948
15947
15945
15944
15943
15943
15942
15941
15941
15941
15941
15940
15940
15939
15941
15941
15945
15947
15947
15946
15942
15942
15939
15937
15939
15939
15936
15936
15935
15933
15936
15940
15941
15942
15944
15946
15948
15946
15946
15945
15944
15943
15943
15944
15944
15943
15945
15944
15944
15943
15940
15939
15936
15936
15936
15939
15939
15939
15936
15934
15934
15933
15934
15933
15932
15928
15926
15925
15923
15922
15923
15925
15927
15927
15929
15932
15933
15932
15933
15932
15933
15934
15934
15936
15936
15935
15935
15936
15935
15933
15933
15930
15929
15930
15933
15938
15941
15939
15936
15934
15933
15932
15933
15933
15934
15932
15931
15930
15929
15928
15928
15929
15928
15928
15932
15938
15938
15936
15935
15932
15932
15931
15932
15934
15934
15935
15934
15933
15933
15933
15932
15934
15935
15938
15940
15944
15946
15945
15944
15942
15941
15940
15939
15940
15940
15939
15939
15939
15937
15937
15935
15934
15932
15933
15935
15941
15944
15943
15942
15941
15937
15935
15936
15938
15939
15938
15936
15937
15940
15942
15938
15935
15933
15929
15930
15935
15939
15939
15936
15937
15936
15937
15940
15945
15950
15950
15950
15947
15940
15935
15933
15936
15941
15947
15955
15960
15963
15959
15955
15951
15950
15952
15954
15956
15958
15957
15957
15958
15958
15958
15960
15960
15962
15965
15964
15960
15956
15953
15950
15952
15951
15953
15954
15954
15954
15952
15948
15941
15935
15924
15928
15941
15946
15945
15943
15944
15945
15947
15948
15950
15949
15947
15945
15943
15944
15945
15947
15952
15953
15947
15943
15941
15945
15952
15955
15955
15959
15962
15963
15964
15961
15956
15954
15956
15965
15977
15983
15983
15977
15973
15969
15968
15969
15970
15971
15972
15970
15966
15965
15965
15964
15966
15971
15980
15985
15984
15981
15980
15977
15975
15975
15976
15978
15980
15979
15977
15975
15974
15972
15972
15971
15972
15977
15983
15983
15981
15980
15979
15978
15978
15977
15979
15977
15975
15973
15972
15970
15970
15969
15970
15968
15969
15972
15978
15981
15981
15978
15977
15974
15973
15974
15976
15977
15975
15972
15970
15970
15969
15969
15968
15968
15967
15970
15975
15981
15981
15979
15978
15976
15973
15973
15973
15975
15974
15975
15973
15972
15970
15969
15969
15967
15968
15968
15970
15977
15981
15981
15980
15978
15975
15972
15973
15974
15975
15974
15973
15971
15971
15971
15970
15969
15968
15967
15969
15970
15975
15981
15982
15979
15976
15973
15972
15973
15974
15974
15974
15972
15971
15971
15970
15969
15968
15967
15966
15966
15967
15973
15979
15980
15978
15976
15973
15970
15970
15972
15973
15973
15973
15972
15973
15974
15975
15974
15969
15964
15959
15963
15969
15973
15970
15963
15956
15950
15946
15948
15950
15956
15959
15961
15963
15961
15960
15959
15960
15960
15960
15965
15967
15964
15960
15957
15957
15958
15958
15959
15961
15961
15962
15963
15966
15965
15963
15961
15960
15958
15962
15963
15961
15955
15947
15940
15939
15942
15947
15955
15962
15974
15978
15973
15967
15963
15959
15958
15964
15972
15976
15975
15971
15968
15966
15964
15965
15964
15966
15964
15963
15959
15957
15955
15953
15952
15957
15963
15965
15963
15962
15962
15963
15966
15967
15970
15972
15972
15973
15971
15970
15969
15968
15972
15980
15983
15983
15981
15979
15976
15973
15972
15972
15973
15972
15972
15970
15969
15970
15970
15971
15977
15983
15983
15982
15980
15978
15975
15975
15977
15978
15977
15977
15976
15977
15976
15974
15974
15977
15981
15986
15986
15984
15983
15980
15977
15977
15980
15980
15979
15978
15977
15976
15977
15979
15949
15946
15955
15958
15960
15966
15968
15968
15969
15973
15977
15979
15981
15985
15987
15987
15986
15981
15976
15975
15974
15974
15978
15987
15993
15993
15994
15999
16002
16002
16002
16000
15995
15986
15984
15984
15983
15982
15983
15982
15982
15986
16001
16013
16031
16062
16094
16094
16051
16020
16000
16000
16029
16030
16050
16068
16074
16081
16091
16092
16084
16077
16071
16066
16064
16066
16069
16067
16055
16052
16057
16066
16070
16075
16077
16071
16065
16057
16057
16069
16082
16096
16109
16113
16124
16124
16107
16115
16108
16102
16116
16122
16118
16204
16242
16212
16161
16195
16330
16133
15938
15932
15942
16049
16006
15973
16312
16286
16042
16035
16029
16012
15974
15918
15884
15919
16056
16051
16073
16075
16065
16053
16075
15949
15732
15668
15997
15997
15933
15940
15941
15898
15834
15799
15761
15765
15761
15761
15739
15732
15803
15894
16018
16072
16062
16065
16081
16088
16040
15942
15821
15778
15739
15683
15618
15616
15672
15731
15754
15833
15908
15897
16034
16115
16110
16115
16083
16047
16104
16202
16263
16225
16151
16071
16000
15961
15954
15958
15962
15963
15965
15966
15968
15970
15972
15973
15976
15982
15985
15985
15987
15986
15990
16001
16009
16016
16013
16006
16001
15997
15996
15993
15996
16000
16004
16008
16016
16021
16023
16021
16018
16014
16009
16007
16009
16011
16014
16016
16016
16013
16011
16011
16009
16009
16012
16022
16030
16032
16029
16028
16026
16025
16025
16027
16028
16028
16026
16025
16025
16025
16023
16022
16024
16031
16040
16043
16043
16042
16038
16036
16036
16036
16040
16039
16040
16038
16038
16036
16034
16033
16036
16044
16051
16055
16055
16052
16049
16047
16044
16048
16049
16048
16047
16046
16045
16044
16042
16044
16044
16048
16054
16060
16058
16058
16054
16052
16052
16050
16052
16054
16053
16054
16053
16052
16052
16051
16050
16053
16062
16069
16070
16069
16066
16064
16062
16062
16063
16065
16064
16062
16061
16059
16058
16058
16059
16058
16061
16069
16074
16072
16067
16068
16069
16068
16071
16071
16071
16069
16066
16064
16066
16066
16066
16065
16064
16063
16068
16076
16081
16081
16079
16074
16073
16073
16073
16076
16075
16073
16070
16066
16065
16068
16069
16068
16068
16068
16071
16076
16077
16074
16071
16071
16070
16066
16067
16068
16067
16067
16067
16066
16064
16063
16061
16060
16059
16060
16063
16071
16073
16072
16069
16066
16062
16061
16061
16064
16061
16050
16044
16042
16043
16041
16042
16043
16046
16049
16058
16063
16064
16062
16059
16055
16052
16054
16056
16055
16056
16053
16052
16049
16048
16046
16046
16050
16057
16061
16061
16060
16055
16053
16051
16052
16051
16048
16039
16023
16016
16015
16019
16023
16027
16034
16048
16057
16063
16071
16077
16074
16074
16082
16098
16101
16084
16069
16053
16042
16026
16015
16014
15999
16008
16034
16094
16097
16088
16075
16061
16056
16060
16064
16064
16066
16068
16061
16054
16054
16055
16048
16036
16027
16020
16019
16020
16014
16013
16011
16012
16011
16012
16015
16014
16014
16014
16013
16013
16013
16019
16026
16026
16025
16021
16019
16016
16014
16016
16016
16017
16016
16014
16015
16014
16015
16015
16014
16016
16021
16021
16017
16010
16012
16016
16016
16021
16020
16014
16005
16001
16004
16006
16006
16007
16007
16004
16008
16015
16021
16022
16018
16013
16012
16010
16010
16012
16013
16012
16010
16009
16007
16006
16006
16003
16007
16015
16025
16027
16027
16024
16021
16018
16018
16018
16020
16020
16022
16025
16025
16024
16022
16019
16017
16015
16022
16031
16034
16031
16028
16026
16023
16019
16019
16021
16022
16020
16018
16015
16012
16008
16006
16005
16004
16011
16019
16024
16022
16020
16017
16014
16013
16014
16016
16014
16013
16013
16011
16011
16010
16009
16008
16006
16008
16015
16025
16027
16025
16022
16020
16016
16015
16016
16017
16019
16017
16015
16014
16012
16011
16010
16009
16010
16010
16016
16025
16029
16027
16025
16023
16019
16017
16017
16018
16019
16018
16017
16016
16015
16012
16011
16012
16011
16009
16011
16021
16027
16028
16026
16024
16019
16018
16019
16019
16020
16020
16018
16016
16015
16014
16013
16012
16011
16010
16009
16010
16018
16027
16029
16025
16022
16021
16016
16016
16017
16018
16017
16017
16016
16013
16012
16011
16010
16009
16007
16007
16013
16021
16025
16024
16021
16018
16014
16013
16013
16014
16015
16014
16013
16012
16011
16010
16009
16008
16008
16010
16018
16025
16025
16022
16019
16017
16014
16013
16014
16016
16014
16014
16012
16011
16011
16009
16009
16007
16008
16017
16023
16024
16023
16019
16016
16013
16012
16013
16017
16016
16014
16014
16013
16013
16013
16013
16014
16018
16026
16031
16031
16028
16025
16024
16023
16023
16025
16024
16025
16024
16022
16020
16020
16019
16019
16019
16028
16033
16033
16031
16028
16025
16021
16022
16024
16025
16026
16025
16024
16023
16021
16021
16018
16023
16032
16035
16035
16032
16029
16026
16026
16027
16029
16029
16027
16026
16024
16024
16022
16022
16023
16032
16037
16038
16035
16032
16029
16027
16028
16030
16030
16031
16029
16028
16027
16027
16026
16026
16032
16039
16042
16042
16040
16036
16033
16033
16033
16036
16035
16035
16033
16032
16030
16030
16030
16031
16037
16043
16048
16046
16042
16041
16035
16037
16038
16040
16039
16039
16036
16035
16035
16033
16033
16033
16033
16038
16044
16048
16046
16044
16040
16037
16038
16037
16038
16038
16036
16035
16035
16034
16033
16032
16030
16031
16035
16042
16044
16043
16040
16038
16034
16033
16035
16036
16036
16035
16034
16033
16032
16031
16031
16031
16031
16032
16038
16042
16044
16042
16039
16037
16035
16035
16036
16036
16035
16034
16034
16032
16031
16030
16030
16031
16034
16039
16045
16046
16042
16042
16040
16038
16039
16040
16041
16041
16041
16040
16038
16038
16038
16038
16037
16038
16043
16050
16054
16055
16052
16052
16050
16049
16050
16052
16052
16051
16050
16050
16051
16057
16068
16073
16075
16074
16071
16076
16079
16079
16080
16084
16083
16082
16082
16081
16080
16078
16076
16073
16072
16070
16067
16068
16068
16068
16069
16076
16080
16081
16079
16079
16078
16077
16077
16078
16079
16077
16076
16075
16075
16074
16074
16075
16073
16072
16073
16078
16083
16084
16082
16079
16077
16075
16073
16074
16074
16072
16071
16069
16067
16066
16064
16064
16063
16063
16063
16067
16071
16073
16072
16070
16067
16067
16067
16065
16066
16067
16064
16064
16063
16063
16061
16061
16059
16059
16058
16058
16061
16065
16068
16066
16063
16062
16059
16058
16056
16058
16059
16059
16059
16058
16058
16058
16060
16059
16059
16060
16060
16065
16069
16071
16071
16070
16066
16062
16061
16062
16065
16066
16065
16063
16060
16061
16058
16058
16058
16059
16061
16066
16068
16067
16064
16063
16063
16063
16065
16065
16065
16065
16065
16065
16065
16065
16065
16066
16065
16065
16068
16076
16082
16082
16080
16076
16072
16070
16071
16073
16077
16077
16074
16071
16068
16067
16065
16063
16068
16074
16080
16095
16106
16112
16107
16097
16093
16091
16084
16081
16078
16076
16075
16075
16071
16073
16079
16083
16084
16081
16078
16075
16072
16072
16073
16074
16076
16078
16078
16077
16076
16077
16075
16079
16082
16081
16076
16071
16067
16064
16060
16060
16060
16061
16060
16059
16058
16055
16054
16057
16063
16064
16063
16062
16059
16059
16058
16061
16063
16063
16063
16062
16062
16061
16061
16066
16072
16077
16079
16078
16077
16077
16076
16076
16079
16081
16081
16081
16080
16082
16082
16083
16088
16094
16097
16094
16094
16093
16091
16090
16092
16092
16093
16093
16092
16090
16091
16089
16088
16094
16100
16103
16103
16101
16098
16097
16094
16095
16093
16091
16089
16087
16087
16084
16082
16082
16081
16082
16086
16091
16092
16090
16088
16086
16084
16084
16085
16086
16085
16083
16082
16082
16083
16081
16081
16080
16080
16081
16088
16093
16094
16091
16089
16089
16086
16085
16086
16087
16086
16085
16083
16081
16080
16079
16077
16077
16077
16075
16077
16084
16087
16085
16082
16080
16078
16077
16078
16078
16076
16076
16075
16072
16070
16070
16070
16067
16067
16066
16066
16073
16078
16080
16078
16075
16072
16069
16069
16069
16070
16068
16067
16065
16064
16063
16063
16062
16062
16062
16061
16062
16069
16074
16075
16073
16071
16068
16066
16067
16068
16069
16068
16068
16066
16065
16063
16065
16066
16068
16067
16067
16072
16077
16076
16077
16075
16073
16071
16070
16071
16072
16071
16071
16070
16068
16067
16065
16064
16062
16062
16062
16067
16071
16071
16068
16065
16063
16059
16058
16058
16059
16058
16058
16056
16055
16055
16053
16050
16051
16051
16057
16061
16062
16061
16059
16058
16056
16056
16057
16059
16058
16057
16056
16054
16055
16052
16053
16051
16052
16056
16061
16059
16058
16056
16054
16053
16052
16053
16055
16054
16051
16052
16051
16052
16050
16050
16052
16055
16060
16062
16062
16058
16057
16056
16056
16057
16058
16058
16057
16057
16056
16056
16055
16054
16054
16054
16059
16063
16065
16062
16060
16059
16058
16058
16059
16059
16061
16059
16058
16057
16057
16056
16055
16054
16054
16056
16060
16060
16058
16056
16053
16050
16050
16049
16049
16048
16046
16046
16046
16046
16046
16045
16046
16046
16047
16053
16058
16061
16058
16048
16039
16033
16035
16039
16039
16038
16041
16045
16046
16048
16049
16050
16052
16054
16057
16065
16071
16073
16075
16075
16073
16074
16073
16076
16077
16078
16077
16076
16074
16075
16074
16073
16074
16076
16080
16083
16082
16077
16076
16074
16071
16072
16074
16072
16071
16069
16068
16067
16069
16067
16067
16070
16075
16076
16074
16072
16070
16069
16069
16071
16072
16072
16073
16072
16072
16071
16069
16068
16069
16073
16080
16083
16080
16078
16075
16071
16071
16072
16073
16074
16074
16073
16071
16069
16070
16070
16072
16078
16083
16082
16080
16079
16078
16077
16077
16077
16077
16078
16076
16074
16075
16075
16074
16074
16079
16083
16085
16085
16082
16082
16081
16082
16083
16084
16083
16083
16081
16080
16080
16080
16078
16080
16088
16094
16094
16091
16091
16089
16086
16086
16087
16087
16086
16084
16082
16081
16079
16079
16078
16081
16092
16100
16102
16098
16096
16091
16086
16083
16081
16080
16077
16075
16075
16072
16072
16073
16073
16073
16074
16081
16087
16089
16089
16086
16085
16085
16085
16085
16084
16085
16085
16085
16087
16087
16087
16089
16092
16094
16094
16094
16096
16102
16109
16110
16108
16107
16106
16103
16101
16101
16098
16095
16093
16089
16085
16083
16080
16079
16076
16075
16073
16072
16071
16070
16070
16075
16080
16079
16079
16077
16076
16074
16073
16073
16074
16073
16072
16070
16069
16067
16067
16066
16067
16067
16067
16066
16066
16065
16068
16075
16078
16078
16077
16075
16074
16073
16072
16070
16069
16067
16066
16066
16066
16067
16068
16067
16066
16066
16067
16067
16070
16076
16082
16080
16076
16075
16072
16069
16068
16068
16069
16067
16066
16063
16063
16061
16060
16060
16059
16059
16059
16062
16069
16072
16072
16070
16068
16066
16065
16065
16067
16067
16068
16067
16066
16065
16065
16065
16064
16064
16067
16072
16075
16075
16072
16071
16067
16066
16066
16065
16066
16066
16065
16065
16063
16062
16061
16061
16060
16060
16064
16072
16075
16073
16071
16068
16066
16066
16066
16068
16069
16068
16066
16065
16065
16064
16063
16063
16063
16065
16070
16074
16074
16073
16071
16069
16068
16069
16069
16071
16070
16069
16068
16067
16066
16066
16064
16061
16064
16070
16074
16075
16074
16070
16068
16066
16068
16068
16070
16068
16068
16066
16064
16064
16064
16064
16065
16071
16076
16077
16074
16070
16070
16068
16069
16069
16072
16071
16070
16069
16069
16068
16068
16067
16070
16076
16080
16080
16077
16076
16073
16072
16072
16074
16073
16074
16074
16072
16071
16070
16071
16069
16075
16081
16083
16081
16080
16076
16074
16074
16075
16077
16076
16075
16075
16073
16072
16071
16070
16074
16081
16084
16081
16078
16077
16073
16073
16075
16075
16076
16073
16072
16070
16070
16069
16069
16075
16081
16082
16081
16078
16076
16074
16073
16076
16076
16075
16075
16073
16072
16072
16071
16070
16073
16081
16084
16084
16080
16076
16076
16075
16075
16075
16074
16073
16071
16070
16069
16069
16068
16067
16067
16074
16079
16078
16076
16072
16069
16067
16068
16069
16070
16070
16068
16068
16068
16067
16065
16064
16065
16070
16077
16080
16079
16077
16074
16073
16071
16074
16075
16075
16074
16075
16072
16073
16071
16071
16071
16074
16081
16086
16087
16084
16082
16078
16078
16079
16081
16082
16083
16081
16080
16081
16080
16080
16080
16084
16093
16095
16093
16090
16089
16087
16086
16087
16088
16088
16087
16086
16085
16082
16081
16082
16083
16088
16093
16092
16090
16087
16084
16082
16080
16081
16081
16080
16078
16078
16076
16075
16074
16072
16078
16085
16086
16085
16082
16080
16078
16077
16081
16083
16085
16083
16082
16080
16080
16079
16081
16083
16091
16097
16098
16095
16091
16089
16086
16087
16086
16086
16084
16081
16078
16078
16077
16076
16076
16077
16079
16086
16090
16089
16088
16085
16083
16082
16081
16084
16083
16084
16082
16083
16080
16080
16078
16078
16079
16079
16084
16092
16096
16094
16092
16089
16085
16086
16088
16090
16092
16090
16089
16088
16088
16087
16087
16087
16085
16084
16090
16096
16099
16098
16095
16093
16088
16088
16089
16089
16091
16089
16088
16087
16085
16084
16083
16084
16084
16091
16098
16099
16098
16094
16091
16088
16087
16089
16090
16089
16089
16087
16084
16085
16084
16084
16086
16093
16099
16100
16097
16095
16091
16089
16091
16092
16093
16091
16090
16090
16088
16088
16086
16086
16090
16098
16101
16101
16099
16096
16093
16093
16094
16096
16095
16094
16094
16091
16090
16090
16088
16089
16093
16102
16106
16105
16102
16100
16097
16095
16097
16097
16098
16097
16096
16095
16093
16092
16091
16091
16092
16097
16105
16108
16106
16104
16100
16100
16099
16100
16100
16101
16099
16098
16096
16096
16094
16093
16092
16091
16090
16092
16100
16106
16107
16103
16100
16097
16094
16096
16097
16098
16097
16096
16094
16092
16091
16090
16091
16090
16090
16090
16090
16095
16102
16104
16103
16099
16096
16093
16093
16095
16094
16096
16095
16092
16091
16091
16088
16087
16087
16087
16086
16088
16097
16100
16099
16097
16095
16092
16089
16090
16092
16094
16092
16091
16090
16089
16089
16088
16088
16089
16091
16097
16103
16103
16101
16097
16095
16092
16092
16095
16096
16096
16095
16092
16091
16090
16088
16089
16088
16092
16101
16105
16102
16100
16097
16094
16095
16096
16097
16097
16097
16096
16094
16093
16092
16093
16092
16091
16093
16102
16106
16106
16102
16098
16096
16095
16095
16096
16096
16094
16094
16092
16090
16089
16088
16088
16087
16087
16091
16099
16101
16101
16096
16093
16090
16090
16092
16094
16093
16091
16091
16089
16087
16086
16084
16084
16083
16084
16091
16096
16098
16094
16092
16089
16085
16085
16086
16086
16086
16087
16083
16082
16080
16078
16077
16077
16075
16079
16086
16091
16092
16090
16086
16083
16081
16080
16081
16082
16081
16078
16076
16075
16074
16074
16073
16071
16071
16078
16083
16084
16082
16080
16079
16076
16077
16079
16079
16078
16079
16080
16077
16078
16076
16077
16075
16076
16077
16085
16090
16093
16090
16089
16087
16087
16088
16090
16090
16091
16090
16096
16100
16103
16100
16094
16089
16086
16088
16093
16097
16097
16093
16089
16086
16082
16081
16080
16083
16081
16076
16074
16071
16069
16068
16066
16065
16065
16070
16077
16079
16077
16074
16072
16070
16069
16071
16073
16072
16072
16069
16067
16067
16067
16065
16066
16071
16079
16086
16086
16083
16080
16077
16074
16074
16075
16076
16075
16073
16072
16070
16069
16069
16068
16068
16072
16080
16085
16085
16083
16079
16080
16076
16077
16079
16080
16079
16078
16077
16075
16075
16074
16073
16073
16073
16077
16085
16089
16087
16086
16084
16082
16079
16080
16081
16081
16079
16079
16078
16076
16074
16074
16075
16073
16074
16075
16081
16087
16089
16086
16083
16082
16080
16081
16081
16082
16081
16079
16077
16077
16076
16075
16075
16075
16074
16074
16077
16086
16090
16089
16086
16083
16080
16080
16079
16082
16082
16082
16080
16077
16075
16075
16074
16073
16074
16076
16082
16088
16087
16087
16083
16079
16077
16079
16080
16082
16080
16080
16078
16077
16076
16075
16074
16073
16077
16085
16089
16090
16087
16084
16081
16080
16079
16081
16081
16083
16080
16067
16053
16060
16074
16119
16138
16134
16129
16141
16143
16144
16147
16145
16141
16140
16141
16133
16120
16112
16109
16101
16099
16097
16091
16096
16107
16114
16112
16114
16119
16126
16120
16110
16100
16097
16081
16052
16031
16022
16000
15981
15978
15997
16030
16077
16122
16157
16186
16202
16237
16266
16289
16310
16321
16332
16332
16344
16353
16356
16357
16365
16379
16395
16406
16404
16401
16398
16397
16400
16407
16415
16416
16415
16424
16416
16400
16390
16388
16390
16387
16384
16381
16384
16387
16386
16377
16363
16355
16354
16347
16345
16348
16345
16341
16345
16348
16349
16350
16348
16346
16344
16335
16330
16327
16336
16347
16352
16360
16365
16369
16365
16362
16364
16411
16487
16310
16200
16201
16273
16229
16170
16163
16138
16141
16099
16102
16092
16092
16089
16086
16127
16124
16189
16165
16074
16038
16076
16104
16100
16113
16065
16059
16046
16043
16049
16049
16083
16055
16050
16032
16061
16072
16061
16049
16000
15994
15952
15940
15910
15886
15872
15845
15848
15823
15849
15833
15833
15838
15828
15844
15829
15851
15839
15856
15863
15856
15862
15857
15883
15867
15864
15844
15845
15861
15857
15877
15872
15898
15894
15902
15895
15884
15891
15878
15898
15891
15908
15908
15908
15916
15924
15949
15941
15911
15845
15766
15744
15662
15628
15605
15606
15609
15619
15619
15619
15625
15627
15626
15627
15631
15631
15634
15640
15654
15670
15681
15693
15699
15706
15711
15713
15725
15731
15742
15748
15757
15759
15763
15769
15767
15769
15760
15757
15764
15791
15816
15829
15840
15838
15845
15844
15846
15843
15846
15856
15859
15870
15873
15894
15909
15919
15904
15883
15887
15866
15857
15847
15848
15851
15863
15869
15884
15902
15906
15923
15939
15966
15979
15968
15985
16019
16034
16029
16015
16001
15999
16002
15995
15986
15962
15941
15928
15928
15942
15947
15964
15966
15982
15981
15974
15958
15940
15942
15944
15979
16002
16022
16041
16054
16068
16100
16132
16155
16175
16184
16207
16236
16275
16349
16342
16274
16246
16247
16251
16246
16245
16241
16228
16229
16228
16224
16229
16235
16236
16235
16243
16246
16246
16246
16247
16252
16256
16263
16272
16276
16271
16269
16268
16269
16274
16279
16283
16285
16284
16282
16279
16282
16283
16284
16285
16288
16282
16276
16259
16236
16216
16207
16211
16214
16207
16204
16197
16218
16221
16221
16228
16216
16204
16190
16179
16173
16163
16164
16157
16157
16141
16121
16104
16084
16071
16049
