1883655
1883662
1883677
1883648
1883620
1883696
1883626
1883627
1883620
1883694
1883783
1883667
1883713
1883627
1883688
1883718
1883793
1883798
1883727
1883636
1883610
1883615
1883709
1883683
1883674
1883652
1883714
1883675
1883735
1883600
1883676
1883645
1883727
1883708
1883612
1883628
1883691
1883626
1883608
1883712
1883592
1883656
1883655
1883687
1883700
1883769
1883704
1883716
1883700
1883654
1883687
1883647
1883706
1883689
1883636
1883643
1883775
1883588
1883666
1883683
1883595
1883692
1883640
1883636
1883674
1883669
1883567
1883610
1883646
1883645
1883799
1883684
1883629
1883678
1883661
1893248
4180684
2521667
1915526
1826459
1830270
2134377
4187417
3873040
2519609
2567276
2701047
2782435
2706787
2769889
2778936
2755217
2688130
2868668
2497319
2796197
4195326
4195079
4196767
4196415
3947699
2665745
2653566
2664953
2688636
2685828
2661341
2644743
2643198
2645954
4185559
4181535
4188341
4193351
4194220
4194744
4195711
4195671
4195575
4196225
4196663
4196842
4196905
4196098
4195594
4195690
4196279
4195937
4194120
4193682
4193919
4194156
4194278
4197095
4197354
4197302
4197842
3088556
2997498
2935618
2927727
2925656
2906941
2930951
2994533
2991022
2965065
2984275
2972395
2957583
2942690
2931700
2919812
2904014
2888070
2873005
2853027
2829693
2813347
2799723
2787969
2778621
2762261
2743272
2731336
2722975
2714806
2709583
2697022
2682523
2673513
2673003
2671981
2671817
2667284
2659273
2656326
2655856
2656152
2659072
2658469
2652804
2652685
2654412
2657055
2660091
2661376
2656963
2656834
2659578
2661649
2665136
2668262
2663920
2661471
2662768
2664690
2667401
2671046
2670992
2666108
2666326
2668292
2669762
2672447
2675360
2670529
2665539
2665139
2665978
2667612
2723439
2782787
2780006
2764838
2755876
2748589
2742057
2738228
2730104
2717471
2712339
2711236
2709965
2710331
2713212
2707141
2701426
2699942
2698861
2698097
2699735
2693469
2681739
2675605
2672692
2670030
2668627
2667254
2657989
2652403
2651501
2650518
2649982
2650452
2643637
2637497
2636421
2635659
2634880
2635748
2632443
2624985
2622500
2622404
2618919
2619118
2619901
2613167
2610188
2610609
2610170
2609194
2612491
2609408
2607598
2609542
2612321
2616961
2620538
2618818
2616266
2619248
2621081
2622692
2623803
2620883
2616405
2615523
2615811
2616168
2617820
2617706
2611506
2609069
2609392
2609798
2611168
2613818
2609631
2605896
2605703
2606120
2606897
2608852
2608566
2602392
2600612
2601126
2601421
2602776
2605061
2601204
2595616
2594277
2594416
2594565
2596274
2598016
2592662
2588231
2587614
2587488
2588128
2589754
2590181
2584384
2581665
2582440
2583022
2584441
2586977
2586097
2580121
2578263
2578836
2578987
2580514
2582941
2580675
2575434
2574674
2575398
2576178
2578508
2581155
2577817
2573989
2574526
2575182
2576457
2578870
2581032
2576537
2572794
2572727
2572933
2574124
2576526
2578669
2573768
2570729
2571478
2572222
2573385
2575873
2577500
2571969
2569381
2570238
2570830
2572179
2574722
2574862
2569367
2567225
2567969
2568394
2569827
2572502
2571986
2566023
2563693
2564060
2564372
2564706
2566588
2567384
2563405
2562365
2563074
2564140
2565779
2568070
2565592
2562031
2562506
2563650
2564977
2567311
2569669
2565916
2561809
2561883
2563012
2564373
2566956
2568485
2563791
2562213
2563165
2564548
2566372
2568497
2567407
2564423
2565042
2566297
2567966
2570268
2572709
2569004
2565721
2566068
2566939
2568225
2570923
2571355
2566605
2565794
2566237
2566231
2567841
2570452
2569104
2565223
2565014
2565950
2567540
2570355
2572887
2569225
2565617
2565172
2565598
2566581
2568698
2570478
2566189
2563044
2563300
2564230
2565450
2568096
2570413
2566348
2564252
2565297
2565924
2567719
2570027
2572489
2568228
2565771
2566488
2567044
2568665
2571511
2574495
2571709
2568096
2568144
2568951
2570419
2572788
2576008
2576820
2572892
2571994
2573082
2573966
2575702
2578045
2579575
2575320
2573431
2574131
2575116
2576470
2579148
2581296
2577139
2573388
2573047
2573640
2574470
2576819
2579389
2576416
2572784
2572728
2573091
2573817
2576062
2578657
2576516
2573377
2573411
2574461
2575383
2577702
2580026
2576479
2573121
2572883
2573726
2574267
2576546
2578628
2574478
2571036
2571002
2571592
2572536
2574677
2576183
2572103
2570478
2571066
2571424
2573097
2575878
2575785
2570969
2569358
2569924
2570260
2571786
2574089
2573547
2568934
2567297
2567752
2568337
2570065
2572486
2572619
2568437
2567292
2567742
2568690
2570420
2572983
2572416
2568335
2567178
2567953
2569755
2572768
2575986
2577054
2572144
2572935
2574590
2575592
2577038
2584514
2588035
2587598
2588945
2591744
2593928
2597947
2599655
2599227
2594695
2593052
2593009
2593655
2595288
2597920
2596870
2593094
2591049
2590832
2589401
2589986
2591584
2589309
2583608
2581275
2580285
2579637
2580247
2582048
2580022
2575473
2576186
2579806
2582880
2586734
2590953
2588974
2586533
2585951
2586971
2589686
2592594
2596295
2593001
2591455
2594631
2594116
2597365
2602354
2610987
2631997
2660357
2662979
2658714
2657665
2658390
2657021
2651617
2649014
2648242
2647181
2647207
2653102
2667546
2675926
2673459
2671846
2672075
2673530
2675838
2673535
2669286
2668442
2668021
2665872
2664194
2665183
2661232
2657817
2658121
2658506
2659875
2662245
2664965
2665035
2667410
2666939
2667230
2669783
2678213
2678353
2674807
2671659
2671286
2677625
2678975
2680699
2681519
2680590
2680984
2680067
2679568
2682005
2687412
2687187
2682448
2680379
2683954
2686319
2685073
2686818
2686165
2682790
2690081
2720032
2725520
2716618
2716504
2718045
2717549
2715040
2709428
2711590
2713675
2716960
2715814
2709556
2706860
2707190
2708151
2710291
2712548
2706998
2701596
2700842
2700397
2700311
2700814
2702343
2696565
2693549
2694402
2694835
2695540
2696632
2696554
2691394
2689094
2690724
2689647
2690588
2693094
2691870
2686687
2684984
2684717
2684773
2686343
2687568
2684105
2679122
2677781
2678646
2678987
2680171
2681276
2676259
2672434
2671983
2671641
2672274
2673216
2672618
2666803
2664457
2664119
2663919
2664767
2666175
2665840
2659945
2657171
2656561
2656450
2657110
2658688
2659126
2654197
2652445
2653966
2653216
2654732
2656154
2657932
2653440
2650560
2650767
2653281
2655284
2657600
2661857
2658077
2655382
2662347
2675967
2685597
2687903
2685354
2679560
2675562
2674827
2675274
2676406
2682012
2689020
2685956
2683111
2683814
2686732
2688613
2691253
2695102
2697451
2698450
2699126
2698219
2700369
2702274
2703249
2698239
2696069
2697378
2702590
2714103
2716283
2713587
2708058
2706430
2705850
2703245
2703870
2712826
2713570
2707280
2705328
2705029
2702284
2702970
2703104
2705962
2717284
2726875
2745080
2737442
2731518
2722729
2713719
2709391
2707276
2707556
2708001
2706514
2700787
2707456
2708019
2703844
2710698
2717965
2719983
2720333
2716846
2718017
2720505
2725022
2729372
2731586
2732592
2735501
2738244
2741533
2741165
2737634
2733001
2729784
2729550
2729987
2730459
2731763
2732326
2727768
2725720
2725369
2725407
2726106
2727760
2725883
2721279
2719920
2719660
2719603
2720118
2721753
2717529
2712530
2711334
2710395
2710034
2711000
2712165
2707223
2702739
2701502
2701134
2701206
2702724
2703641
2698264
2694946
2694960
2694206
2694920
2697352
2699100
2693506
2690458
2690343
2690710
2691410
2693167
2692147
2687661
2686058
2686829
2687453
2689050
2691196
2688791
2685819
2686116
2687135
2688778
2690684
2691355
2686725
2684614
2684920
2685177
2686084
2688115
2686130
2681209
2679229
2680096
2680226
2681705
2683926
2679483
2675307
2674745
2674980
2675349
2677003
2676650
2670487
2668060
2667906
2668195
2668988
2671240
2668044
2662594
2661642
2662184
2663347
2665480
2667777
2663000
2660243
2661001
2662245
2664100
2666788
2666806
2662616
2661711
2662653
2664137
2665800
2668443
2666342
2662322
2661552
2662560
2663904
2666319
2668267
2663958
2661511
2661887
2662882
2664477
2667321
2666814
2662292
2661404
2662551
2663120
2665379
2667976
2662984
2659575
2659903
2659966
2661133
2663519
2663626
2658270
2656580
2657009
2657803
2659865
2661969
2658329
2654940
2655321
2655513
2656875
2658940
2658232
2656650
2665097
2677206
2677443
2676677
2680171
2684090
2686446
2689294
2691649
2693896
2695817
2694429
2693696
2696622
2699364
2701673
2704009
2700979
2698711
2700484
2701993
2703507
2705540
2699814
2696280
2696444
2697002
2697714
2698813
2692157
2688440
2688649
2689034
2690511
2692241
2686305
2682570
2683052
2684095
2685803
2688505
2684396
2679693
2679727
2681228
2682848
2686341
2689883
2685843
2682259
2683168
2685218
2687571
2691192
2695941
2696804
2692911
2692239
2693800
2696036
2699539
2699949
2710602
2718215
2722625
2727511
2730635
2734347
2738518
2740613
2741580
2737742
2738367
2741120
2745469
2750439
2755553
2757740
2753887
2751122
2747030
2744694
2744105
2744449
2740370
2728775
2724123
2721323
2718928
2718416
2718959
2709022
2699243
2695531
2693737
2692164
2693261
2694001
2683940
2677148
2675703
2673745
2672115
2674459
2677717
2669884
2664947
2665859
2667242
2670233
2673931
2675144
2668011
2667238
2669707
2672125
2676131
2681832
2685832
2680660
2681684
2682718
2685780
2689045
2693381
2696821
2692759
2692542
2695066
2697427
2700380
2703691
2706609
2701486
2700593
2703773
2706428
2709631
2715395
2717534
2711315
2709632
2711613
2714397
2717912
2719409
2719441
2712939
2712366
2716133
2716643
2719565
2723137
2717493
2713212
2711274
2713506
2711600
2715764
2717672
2711735
2704462
2702544
2705764
2702976
2700441
2698206
2685498
2679354
2678465
2676901
2675987
2676745
2670091
2659770
2656441
2656106
2656082
2657795
2660344
2651565
2645142
2645336
2646599
2648307
2651659
2652378
2645005
2643890
2645957
2647661
2650586
2654987
2651125
2646249
2647375
2649585
2652100
2656055
2659688
2653682
2651160
2653141
2655266
2658156
2662374
2663381
2657873
2658260
2661200
2663358
2666369
2670673
2667163
2663501
2665107
2667200
2669383
2672723
2675610
2669002
2666221
2667794
2669411
2671755
2675401
2674840
2668298
2667777
2669858
2671284
2673868
2677215
2671889
2667509
2668355
2669154
2670339
2673110
2674542
2666512
2663042
2663920
2664344
2666406
2669594
2667515
2660303
2659105
2660609
2661391
2663887
2667601
2661448
2657538
2658914
2659764
2661536
2664622
2665583
2658002
2656026
2657565
2658986
2661752
2665732
2664051
2658448
2658488
2660820
2662980
2666264
2670404
2666253
2664058
2665912
2667825
2670131
2673682
2674602
2668966
2668096
2670300
2671848
2674870
2678809
2675157
2671031
2671828
2673761
2675922
2679317
2681080
2675628
2674836
2677070
2678025
2680151
2683209
2677750
2673156
2673961
2674721
2676085
2678928
2677217
2670759
2669858
2670839
2672275
2675132
2677163
2671581
2669504
2671220
2672205
2674387
2677244
2673110
2668702
2669346
2670621
2672066
2675009
2675390
2669139
2667968
2669576
2671270
2673868
2677558
2674203
2671286
2672740
2674517
2676974
2680570
2682305
2676791
2675515
2677301
2678630
2681084
2684564
2685425
2679655
2678204
2679599
2680766
2683331
2686890
2687228
2682465
2682211
2683950
2685101
2687619
2691058
2688550
2683156
2682342
2683613
2684419
2686569
2690034
2688063
2682009
2681103
2682121
2682511
2685096
2688165
2685073
2680345
2680424
2681733
2682548
2684813
2687136
2680864
2676434
2677004
2677172
2677971
2680538
2680176
2672518
2670121
2671217
2672014
2673302
2676455
2671504
2666930
2667200
2667641
2668344
2670754
2670008
2662499
2660045
2660637
2661234
2663271
2666107
2660809
2655025
2654917
2655926
2657462
2660578
2662600
2656310
2654944
2656888
2658307
2660648
2664513
2662133
2656990
2657195
2658578
2660209
2663562
2666819
2661131
2658087
2659186
2660897
2663325
2667284
2667983
2662373
2662231
2664471
2665915
2668650
2672114
2668046
2663688
2664301
2665300
2667047
2670131
2671081
2664679
2662358
2664076
2665033
2667335
2670756
2666694
2663190
2664279
2664858
2666475
2669427
2668397
2661965
2660972
2662164
2663368
2665895
2666937
2660296
2658240
2659636
2661123
2663666
2666928
2661927
2659421
2661532
2662386
2665523
2669195
2664962
2660827
2661891
2662733
2664143
2667129
2664993
2660516
2660951
2662908
2665010
2668304
2669071
2664689
2664630
2667131
2668902
2672552
2675964
2671354
2669617
2671555
2673963
2676765
2680871
2680012
2676057
2677131
2679235
2681812
2685343
2687849
2683848
2683305
2685691
2687488
2690294
2694133
2692337
2687991
2688587
2689849
2691700
2694121
2697167
2692198
2688834
2689561
2690860
2692649
2695644
2696678
2690581
2689342
2690757
2691838
2693493
2696400
2694032
2687897
2686968
2688105
2688723
2688298
2687123
2670745
2663188
2663773
2666891
2661392
2655623
2646692
2628814
2612799
2595325
3516024
4197613
4197749
2672939
2574451
2568736
2556195
2548866
2544800
2534509
2524511
2519093
2515927
2510401
2506868
2498898
2489525
2496930
2500169
4197322
4197401
4195534
2982895
2547729
3278519
3752508
4196908
4197667
4198034
4197779
4198047
4198029
4197693
3894598
3978123
3876955
3826737
3813236
3765424
3756864
3818616
4091246
4197430
4197642
4197705
4197815
4197792
4198091
4198046
4197968
4197891
4197780
4197963
4198053
4198115
4197996
4197934
4198040
4198123
4198133
4198076
4198112
4198135
4198143
4198093
4198107
4198050
4197759
4197695
4197699
4197715
4197795
4197663
4197676
4197639
4197724
4197763
4197792
4197758
4197699
4197742
4197684
4197703
4197635
4197682
4197728
4197816
4197591
4197711
4197842
4197840
4197783
4197784
4197735
4197713
4197746
4197815
4197763
4197629
4197757
4197671
4197978
4197992
4197992
4198032
4197926
4197938
4197901
4197979
4197996
4197917
4197930
4197908
4198028
4198074
4198038
4197967
4197933
4198047
4197982
4198034
4198057
4198054
4198008
4198063
4198154
4198070
4198043
4198017
4198129
4198125
4198050
4198096
4198057
4198004
4198054
4198123
4198057
4198014
4197970
4197984
4198101
4198042
4198079
4197972
4197987
4197813
4197606
4197896
4198023
4197925
4197980
4198055
4197995
4197914
4197983
4197962
4198000
4198026
4198036
4198029
4197980
4197975
4197945
4197987
4198003
4197984
4198010
4197945
4197992
4198021
4197987
4197938
4197953
4197960
4197970
4198042
4197988
4197975
4197962
4198042
4197967
4198057
4197953
4197960
4197936
4197999
4198063
4198060
4198032
4198021
4197988
4197968
4197913
4197925
4197946
4197964
4197966
4197997
4197951
4197884
4197833
4197893
4197775
4197834
4197845
4197848
4197792
4197809
4197826
4197794
4197873
4197809
4197886
4197841
4197834
4197789
4197798
4197763
4197709
4197737
4197709
4197808
4197809
4197787
4197875
4197837
4197845
4197914
4197841
4197864
4197832
4197807
4197791
4197800
4197829
4197761
4197778
4197741
4197753
4197748
4197796
4197732
4197845
4197856
4197908
4197959
4197909
4197966
4197904
4197936
4197942
4197879
4197925
4197909
4197868
4197530
4197612
4197629
4196699
4197097
4197020
4196661
4196954
4196649
4194293
4193036
4194635
4195267
4197042
4197316
2697849
3948292
4188496
4187276
4061153
3826089
3965731
4145844
4187678
4192869
4195186
4195665
4196025
4195549
4195404
4195471
4195570
4196707
4197020
4197451
4196817
4196811
4196720
4196740
4196818
4196875
4196920
4196825
4196774
4196733
4196246
4196394
4195980
4194036
4194962
4195329
4194447
4193165
4192036
4189407
4186010
4188579
4185816
4186579
4188070
4189376
4190051
4190478
4190860
4188194
4186203
4188692
4188103
4188868
4188792
4189507
4189963
4191953
4191938
4089902
4186437
4004558
3844034
3960753
4043725
4138299
4190885
4189714
4191535
3966623
3534064
2197556
1803781
1782250
1782236
1794337
1818146
2076152
4185369
3624961
2054172
2038294
2170801
2173436
2162942
2159070
2150330
2136612
2125650
2109809
2101983
2102992
2103714
2103194
2103261
2121680
2126719
2129398
2174970
2171329
2167775
2171334
2173293
2172813
2172122
2172138
2174773
2186490
2175494
2166688
2175192
2171847
2169589
2173867
2174431
2167793
2167114
2168232
2175031
2170175
2169463
2183554
2174025
2174268
2174682
2177451
2175627
2175422
2174566
2172306
2173267
2173795
2174098
2174339
2173671
2172876
2173997
2174369
2174459
2175161
2174611
2173815
2174732
2176521
2172034
2172097
2172188
2172151
2172863
2173763
2173136
2172246
2170641
2164524
2163300
2161929
2175079
2156695
2162339
2260225
4163925
3460246
1820690
2076836
2139005
1990117
1940877
1857209
1859913
1852693
1856410
1856334
1856239
1856418
1856284
1856351
1856305
1856350
1856267
1856250
1856253
1856284
1856111
1856185
1856213
1856189
1856161
1856151
1856180
1856212
1856200
1856124
1856161
1856169
1856230
1856179
1856204
1856164
1856153
1856157
1856157
1856168
1856178
1856230
1856226
1856227
1856273
1856282
1856220
1856165
1856231
1856268
1856240
1856204
1856222
1856291
1856272
1856222
1856323
1856268
1856256
1856332
1856331
1856244
1856310
1856344
1856385
1856383
1856375
1856424
1856391
1856426
1856389
1856395
1856470
1856433
1856374
1856398
1856473
1856393
1856484
1856453
1856496
1856521
1856460
1856410
1856558
1856539
1856456
1856581
1856511
1856595
1856495
1856557
1856521
1856547
1856502
1856642
1856563
1856604
1856619
1856591
1856583
1856617
1856632
1856565
1856548
1856524
1856610
1856704
1856640
1856652
1856651
1856688
1856636
1856759
1856618
1856652
1856671
1856694
1856664
1856649
1856737
1856726
1856678
1856748
1856634
1856674
1856646
1856776
1856745
1856747
1856746
1856779
1856760
1856797
1856786
1856717
1856736
1856763
1856866
1856752
1856732
1856798
1856834
1856822
1856844
1856793
1856888
1856797
1856803
1856813
1856825
1856806
1856777
1856909
1856756
1856919
1856902
1856910
1856847
1856824
1856759
1856869
1856907
1856855
1856930
1856868
1856895
1856848
1856827
1856825
1856939
1856878
1856900
1856986
1856930
1856873
1856894
1856942
1856925
1856899
1856915
1856866
1856868
1856906
1856971
1856910
1856914
1856861
1856960
1857079
1856957
1856928
1857028
1856961
1857040
1856963
1857016
1856973
1856984
1857026
1856954
1856929
1857066
1856956
1857012
1856900
1857105
1857042
1857029
1857011
1856993
1857044
1856993
1856976
1857090
1857102
1856993
1857064
1857061
1856982
1857058
1857001
1857105
1857014
1857012
1857002
1857041
1857055
1857161
1857051
1857106
1857135
1857098
1857139
1857061
1857046
1856938
1857051
1857145
1857071
1857085
1857075
1857042
1857106
1856960
1857058
1857172
1857079
1857065
1857104
1857173
1857142
1857069
1857092
1857121
1857164
1857167
1857046
1857046
1857140
1857104
1857131
1857017
1857188
1857105
1857107
1857092
1857014
1857078
1857015
1857105
1857136
1857139
1857057
1857224
1857124
1857160
1857133
1857069
1857120
1857017
1857056
1857179
1857106
1857054
1857061
1857105
1857132
1857157
1857077
1857220
1857137
1857115
1857152
1857158
1857038
1857173
1857144
1857089
1857068
1857143
1857057
1857093
1857077
1857093
1857126
1856984
1857050
1857115
1857205
1857115
1857173
1857186
1857046
1857181
1857052
1857095
1857139
1856969
1857092
1857000
1857093
1857118
1857124
1857080
1857075
1857081
1857052
1857032
1857146
1857038
1857094
1857045
1857192
1857184
1857054
1857106
1857069
1857125
1857079
1857169
1857119
1857141
1857150
1857081
1857057
1857018
1857099
1857058
1857062
1857137
1857152
1857075
1857078
1857041
1857019
1857100
1857082
1857203
1857195
1857043
1857028
1857097
1857067
1857016
1857024
1857101
1857130
1857201
1857153
1857129
1857098
1857096
1857148
1857052
1857182
1857106
1857186
1857081
1857110
1857172
1857168
1857136
1857076
1857099
1857153
1857064
1857114
1857072
1857229
1857118
1857126
1857053
1857065
1857020
1857035
1857080
1857041
1857074
1857138
1857113
1857082
1857092
1857141
1857156
1857118
1857231
1857155
1857022
1857019
1857080
1857139
1857171
1857107
1857130
1857099
1857215
1857138
1857071
1857114
1857155
1857152
1857030
1857109
1857186
1857090
1857198
1857132
1857144
1857167
1857170
1857193
1857126
1857253
1857200
1857071
1857151
1857130
1857092
1857163
1857223
1857142
1857122
1857173
1857247
1857152
1857160
1857233
1857148
1857195
1857148
1857191
1857213
1857227
1857288
1857169
1857101
1857179
1857218
1857130
1857242
1857121
1857255
1857164
1857215
1857185
1857166
1857263
1857098
1857170
1857243
1857201
1857194
1857163
1857238
1857157
1857278
1857179
1857224
1857152
1857204
1857164
1857174
1857245
1857248
1857278
1857195
1857252
1857145
1857174
1857153
1857232
1857090
1857212
1857175
1857230
1857275
1857257
1857183
1857202
1857259
1857274
1857279
1857126
1857223
1857122
1857232
1857347
1857174
1857257
1857227
1857238
1857205
1857269
1857193
1857309
1857302
1857139
1857235
1857226
1857241
1857170
1857215
1857291
1857224
1857172
1857301
1857243
1857223
1857242
1857303
1857167
1857245
1857180
1857338
1857270
1857320
1857286
1857320
1857182
1857191
1857336
1857234
1857316
1857295
1857240
1857193
1857289
1857195
1857166
1857290
1857316
1857210
1857225
1857201
1857261
1857272
1857237
1857332
1857311
1857325
1857271
1857186
1857197
1857283
1857252
1857162
1857230
1857230
1857276
1857293
1857262
1857234
1857276
1857254
1857304
1857269
1857270
1857268
1857279
1857219
1857269
1857262
1857195
1857292
1857271
1857245
1857243
1857280
1857245
1857311
1857290
1857359
1857310
1857306
1857182
1857351
1857290
1857323
1857264
1857334
1857199
1857342
1857259
1857297
1857383
1857360
1857287
1857334
1857412
1857319
1857238
1857279
1857272
1857279
1857377
1857243
1857298
1857297
1857211
1857245
1857330
1857278
1857262
1857341
1857303
1857375
1857212
1857246
1857288
1857235
1857324
1857289
1857294
1857281
1857281
1857259
1857249
1857264
1857231
1857357
1857300
1857423
1857323
1857317
1857282
1857304
1857279
1857249
1857344
1857336
1857233
1857378
1857270
1857298
1857270
1857345
1857298
1857351
1857274
1857322
1857317
1857316
1857220
1857245
1857282
1857290
1857357
1857307
1857360
1857239
1857356
1857374
1857212
1857352
1857352
1857347
1857294
1857347
1857294
1857316
1857277
1857281
1857355
1857324
1857242
1857298
1857239
1857458
1857290
1857368
1857360
1857331
1857310
1857369
1857418
1857344
1857334
1857360
1857413
1857404
1857350
1857334
1857346
1857338
1857317
1857352
1857281
1857316
1857269
1857312
1857358
1857393
1857374
1857340
1857392
1857321
1857279
1857381
1857338
1857338
1857294
1857285
1857280
1857363
1857364
1857355
1857379
1857328
1857403
1857391
1857325
1857364
1857308
1857431
1857336
1857387
1857375
1857325
1857328
1857292
1857342
1857331
1857342
1857262
1857282
1857441
1857362
1857412
1857410
1857348
1857279
1857303
1857354
1857360
1857342
1857376
1857383
1857377
1857360
1857364
1857320
1857417
1857425
1857381
1857427
1857369
1857413
1857413
1857294
1857335
1857398
1857352
1857352
1857366
1857349
1857378
1857464
1857330
1857475
1857382
1857395
1857324
1857407
1857362
1857332
1857357
1857400
1857368
1857487
1857461
1857292
1857367
1857384
1857414
1857420
1857369
1857366
1857361
1857407
1857358
1857404
1857476
1857345
1857459
1857402
1857354
1857409
1857395
1857317
1857453
1857469
1857512
1857363
1857450
1857324
1857421
1857400
1857372
1857433
1857433
1857394
1857463
1857470
1857349
1857409
1857346
1857506
1857474
1857355
1857478
1857376
1857392
1857376
1857448
1857436
1857434
1857363
1857409
1857441
1857545
1857427
1857478
1857390
1857396
1857485
1857452
1857447
1857382
1857449
1857418
1857413
1857473
1857341
1857358
1857395
1857519
1857426
1857377
1857468
1857465
1857403
1857526
1857347
1857360
1857426
1857471
1857533
1857416
1857448
1857510
1857451
1857448
1857498
1857382
1857378
1857481
1857409
1857495
1857376
1857413
1857446
1857490
1857499
1857420
1857516
1857498
1857483
1857429
1857370
1857484
1857565
1857464
1857421
1857470
1857436
1857452
1857455
1857513
1857461
1857467
1857477
1857482
1857492
1857518
1857427
1857432
1857509
1857424
1857515
1857459
1857490
1857500
1857483
1857373
1857443
1857396
1857496
1857524
1857470
1857476
1857423
1857572
1857435
1857443
1857557
1857553
1857485
1857550
1857585
1857534
1857417
1857483
1857498
1857543
1857532
1857456
1857487
1857499
1857445
1857468
1857543
1857498
1857470
1857528
1857532
1857565
1857502
1857545
1857578
1857581
1857507
1857501
1857550
1857574
1857496
1857508
1857470
1857519
1857531
1857479
1857497
1857495
1857573
1857515
1857539
1857528
1857468
1857536
1857570
1857519
1857513
1857566
1857507
1857571
1857520
1857471
1857482
1857502
1857575
1857552
1857462
1857566
1857474
1857546
1857525
1857514
1857529
1857492
1857544
1857527
1857389
1857460
1857576
1857503
1857466
1857559
1857566
1857520
1857470
1857582
1857554
1857495
1857532
1857604
1857440
1857576
1857559
1857574
1857537
1857544
1857527
1857487
1857521
1857513
1857515
1857571
1857555
1857521
1857527
1857457
1857531
1857474
1857521
1857532
1857654
1857494
1857537
1857466
1857549
1857549
1857659
1857576
1857478
1857634
1857590
1857557
1857582
1857492
1857543
1857557
1857577
1857611
1857515
1857561
1857447
1857604
1857502
1857631
1857570
1857638
1857488
1857510
1857532
1857524
1857525
1857576
1857538
1857562
1857536
1857523
1857547
1857534
1857582
1857602
1857537
1857552
1857527
1857603
1857654
1857581
1857596
1857549
1857539
1857596
1857463
1857580
1857569
1857612
1857534
1857586
1857581
1857591
1857617
1857554
1857683
1857627
1857588
1857601
1857587
1857571
1857604
1857686
1857603
1857552
1857620
1857648
1857585
1857626
1857530
1857505
1857558
1857515
1857579
1857555
1857606
1857591
1857658
1857570
1857525
1857621
1857636
1857578
1857596
1857581
1857553
1857546
1857544
1857473
1857581
1857549
1857576
1857581
1857552
1857587
1857553
1857619
1857562
1857565
1857578
1857521
1857572
1857566
1857648
1857563
1857614
1857607
1857517
1857595
1857596
1857644
1857662
1857563
1857594
1857526
1857586
1857609
1857583
1857602
1857589
1857556
1857618
1857677
1857649
1857606
1857568
1857624
1857604
1857665
1857644
1857588
1857702
1857698
1857639
1857590
1857635
1857631
1857702
1857595
1857636
1857626
1857584
1857586
1857608
1857606
1857570
1857613
1857591
1857632
1857640
1857693
1857593
1857625
1857565
1857676
1857653
1857579
1857644
1857619
1857613
1857595
1857581
1857616
1857678
1857617
1857593
1857611
1857691
1857508
1857577
1857653
1857614
1857630
1857672
1857673
1857588
1857711
1857667
1857727
1857572
1857679
1857686
1857621
1857627
1857634
1857653
1857699
1857693
1857605
1857710
1857730
1857660
1857722
1857682
1857636
1857634
1857708
1857531
1857571
1857687
1857550
1857686
1857693
1857673
1857621
1857687
1857687
1857675
1857675
1857566
1857687
1857682
1857653
1857586
1857691
1857690
1857656
1857594
1857653
1857740
1857636
1857676
1857722
1857691
1857601
1857621
1857648
1857678
1857585
1857620
1857748
1857648
1857640
1857630
1857685
1857643
1857596
1857695
1857625
1857693
1857727
1857689
1857702
1857694
1857608
1857633
1857773
1857749
1857624
1857612
1857729
1857645
1857647
1857655
1857692
1857648
1857661
1857621
1857757
1857660
1857693
1857649
1857712
1857727
1857716
1857724
1857702
1857674
1857719
1857696
1857695
1857603
1857679
1857709
1857686
1857652
1857735
1857694
1857731
1857702
1857737
1857606
1857622
1857730
1857639
1857720
1857715
1857685
1857726
1857663
1857672
1857613
1857691
1857650
1857731
1857743
1857633
1857694
1857675
1857653
1857622
1857690
1857645
1857689
1857746
1857762
1857728
1857691
1857701
1857668
1857793
1857661
1857608
1857685
1857725
1857750
1857649
1857832
1857733
1857684
1857675
1857620
1857635
1857741
1857787
1857677
1857716
1857685
1857730
1857724
1857680
1857676
1857652
1857745
1857682
1857691
1857641
1857755
1857727
1857625
1857718
1857633
1857752
1857778
1857815
1857725
1857770
1857678
1857712
1857766
1857706
1857643
1857755
1857708
1857684
1857692
1857696
1857732
1857735
1857818
1857742
1857705
1857689
1857750
1857719
1857689
1857738
1857694
1857758
1857669
1857723
1857644
1857623
1857695
1857831
1857686
1857703
1857727
1857731
1857732
1857748
1857714
1857737
1857734
1857744
1857710
1857681
1857737
1857687
1857717
1857669
1857785
1857801
1857693
1857782
1857746
1857751
1857728
1857655
1857792
1857772
1857752
1857719
1857674
1857737
1857730
1857737
1857737
1857741
1857740
1857770
1857636
1857735
1857702
1857742
1857835
1857718
1857705
1857707
1857681
1857721
1857807
1857727
1857752
1857807
1857758
1857794
1857733
1857759
1857813
1857719
1857702
1857807
1857737
1857689
1857699
1857810
1857700
1857790
1857682
1857699
1857831
1857809
1857810
1857730
1857796
1857777
1857764
1857799
1857804
1857785
1857833
1857717
1857743
1857745
1857736
1857731
1857747
1857785
1857663
1857753
1857758
1857707
1857815
1857698
1857671
1857716
1857775
1857778
1857719
1857713
1857650
1857758
1857735
1857799
1857765
1857750
1857744
1857612
1857682
1857695
1857788
1857875
1857787
1857799
1857794
1857781
1857758
1857697
1857761
1857704
1857780
1857715
1857746
1857740
1857883
1857749
1857686
1857881
1857689
1857708
1857772
1857765
1857714
1857706
1857786
1857815
1857755
1857834
1857821
1857767
1857731
1857858
1857731
1857882
1857747
1857860
1857849
1857758
1857871
1857767
1857690
1857773
1857791
1857748
1857743
1857789
1857866
1857793
1857807
1857763
1857728
1857782
1857825
1857757
1857751
1857750
1857819
1857723
1857779
1857727
1857756
1857707
1857770
1857804
1857686
1857806
1857771
1857735
1857806
1857818
1857788
1857733
1857735
1857732
1857791
1857772
1857760
1857743
1857762
1857845
1857798
1857827
1857810
1857745
1857740
1857837
1857815
1857819
1857826
1857802
1857840
1857721
1857884
1857673
1857736
1857823
1857726
1857734
1857780
1857823
1857790
1857852
1857767
1857759
1857737
1857789
1857852
1857802
1857828
1857758
1857699
1857876
1857916
1857804
1857830
1857778
1857761
1857900
1857876
1857811
1857817
1857813
1857909
1857850
1857800
1857835
1857827
1857716
1857832
1857734
1857838
1857811
1857721
1857825
1857919
1857790
1857831
1857811
1857786
1857796
1857759
1857782
1857807
1857874
1857851
1857728
1857806
1857852
1857765
1857885
1857840
1857822
1857869
1857816
1857847
1857815
1857906
1857816
1857877
1857812
1857781
1857846
1857848
1857838
1857805
1857832
1857785
1857904
1857786
1857844
1857784
1857772
1857872
1857818
1857774
1857838
1857773
1857805
1857901
1857732
1857825
1857819
1857867
1857794
1857894
1857760
1857882
1857763
1857859
1857786
1857781
1857781
1857789
1857857
1857840
1857811
1857820
1857808
1857874
1857791
1857841
1857801
1857905
1857879
1857816
1857837
1857826
1857820
1857767
1857852
1857856
1857819
1857855
1857833
1857879
1857831
1857799
1857802
1857882
1857748
1857824
1857833
1857838
1857945
1857909
1857874
1857875
1857852
1857850
1857872
1857856
1857821
1857909
1857802
1857889
1857839
1857896
1857790
1857794
1857769
1857751
1857877
1857848
1857893
1857854
1857806
1857860
1857793
1857811
1857834
1857894
1857851
1857803
1857760
1857775
1857893
1857923
1857877
1857800
1857895
1857797
1857780
1857850
1857861
1857848
1857799
1857776
1857880
1857827
1857876
1857821
1857857
1857834
1857765
1857847
1857853
1857897
1857831
1857787
1857961
1857796
1857910
1857863
1857852
1857809
1857899
1857780
1857788
1857836
1857890
1857879
1857842
1857840
1857862
1857877
1857862
1857882
1857846
1857821
1857824
1857882
1857875
1857822
1857832
1857892
1857820
1857901
1857788
1857816
1857837
1857840
1857904
1857947
1857832
1857754
1857774
1857788
1857934
1857871
1857908
1857815
1857855
1857906
1857884
1857836
1857857
1857836
1857846
1857921
1857896
1857972
1857969
1857865
1857853
1857887
1857855
1857851
1857860
1857908
1857828
1857889
1857846
1857903
1857842
1857941
1857878
1857839
1857830
1857902
1857852
1857777
1857868
1857920
1857826
1857860
1857823
1857877
1857865
1857924
1857823
1857800
1857832
1857904
1857947
1857912
1857853
1857826
1857836
1857915
1857917
1857840
1857950
1857902
1857853
1857856
1857931
1857903
1857837
1857880
1857889
1857885
1857928
1857898
1857847
1857927
1857851
1857851
1857812
1857834
1857787
1857903
1858007
1857895
1857920
1857897
1857844
1857886
1857896
1857879
1857896
1857896
1857933
1857833
1857909
1858001
1857902
1857843
1857799
1857847
1857952
1857850
1857872
1857927
1858029
1857874
1857936
1857943
1857945
1857885
1857956
1857944
1857923
1857813
1857840
1857890
1857933
1857851
1857965
1857920
1857888
1857848
1857817
1857884
1857802
1857927
1857879
1857929
1857950
1857935
1857942
1857820
1857885
1857862
1857974
1857893
1857881
1857864
1857776
1857852
1857898
1857926
1857856
1857892
1857931
1857873
1857850
1857887
1857930
1857918
1857873
1857813
1857913
1857837
1857849
1857965
1857899
1857944
1857841
1857859
1857931
1857910
1857911
1857949
1857882
1857875
1857883
1857895
1857871
1857989
1857869
1857896
1857958
1857836
1857946
1857963
1857857
1857823
1857823
1857927
1857861
1857941
1857893
1857966
1857896
1857953
1857918
1857852
1857940
1857956
1857790
1857886
1857926
1857887
1857816
1857874
1857872
1857957
1857905
1857936
1857824
1857914
1857812
1857934
1857911
1857858
1857906
1857876
1857892
1857976
1857846
1857975
1857901
1857914
1857893
1857904
1857841
1857840
1857943
1857891
1857918
1857931
1857944
1857840
1857931
1857956
1857874
1857883
1857831
1857937
1857887
1857996
1857912
1857818
1857891
1857918
1857958
1857911
1857944
1857963
1857894
1857975
1857894
1858009
1857879
1857901
1857927
1857924
1857854
1857829
1857941
1857969
1857889
1857902
1857929
1857869
1857886
1857929
1857867
1857882
1857882
1857933
1857829
1857831
1857912
1857878
1857933
1857938
1857881
1857949
1857942
1857915
1857878
1858029
1857934
1857950
1857892
1857921
1857883
1857906
1857981
1857868
1858010
1857882
1857922
1857966
1857924
1857940
1857933
1857917
1857831
1857917
1857965
1857852
1857903
1858005
1857977
1857962
1857857
1857930
1858051
1858004
1857913
1857948
1857929
1857967
1857906
1857878
1857959
1858029
1857947
1858035
1857982
1857984
1858000
1857929
1857846
1857896
1857991
1857866
1858014
1857848
1857858
1857819
1857861
1857938
1857948
1857933
1857859
1857985
1857992
1858007
1857987
1857944
1857991
1857910
1858027
1857933
1857985
1857952
1857983
1858036
1857985
1857936
1857985
1857904
1857895
1858006
1857853
1857994
1857945
1857975
1857997
1857915
1857922
1857953
1858015
1857878
1857974
1857981
1857942
1857977
1857878
1858030
1857912
1857907
1857896
1857982
1857951
1857922
1857940
1857916
1857945
1857888
1857926
1857898
1857885
1857967
1857923
1857929
1858023
1857963
1857991
1858008
1857980
1857838
1857901
1857966
1858049
1857999
1857904
1857901
1857906
1858044
1857899
1857945
1857949
1857973
1857853
1858007
1857980
1857944
1857995
1857903
1858021
1857899
1858003
1857958
1857952
1857893
1857953
1857959
1858009
1858006
1857968
1858004
1857978
1858083
1857999
1857967
1857937
1857966
1857930
1857975
1857974
1857843
1858041
1857961
1857973
1857999
1857934
1857898
1857961
1858015
1857925
1857982
1858057
1857901
1857969
1858008
1857868
1857976
1857877
1857992
1857940
1857912
1857960
1858003
1858022
1857949
1857949
1857985
1857934
1857986
1858043
1857909
1857965
1857952
1858021
1857905
1858034
1858001
1857922
1857927
1857930
1857975
1857954
1857995
1857993
1858099
1858154
1857956
1858022
1857897
1857949
1857976
1858056
1857944
1857945
1857909
1858009
1857910
1857983
1857987
1857993
1858022
1857953
1857920
1858036
1857896
1858003
1858025
1857956
1857987
1858005
1858022
1857973
1858012
1858036
1858040
1858051
1858010
1858077
1857993
1857850
1857988
1857969
1858035
1857995
1857934
1857835
1857921
1858024
1857918
1858075
1857966
1857978
1857946
1858004
1857977
1858008
1857969
1857976
1857929
1858061
1857985
1857971
1858003
1857935
1857971
1857934
1858048
1857952
1857999
1857921
1857931
1858024
1857953
1857931
1857985
1857986
1858034
1858052
1857941
1857982
1858024
1857972
1857948
1857920
1857928
1857923
1857929
1857896
1857982
1858072
1857938
1858022
1857979
1858070
1857917
1857999
1858053
1857947
1858023
1858000
1857978
1857977
1858041
1857966
1857946
1857904
1858037
1858076
1858017
1858008
1857959
1857931
1857843
1858002
1858046
1857969
1857989
1858019
1857981
1858014
1857981
1857972
1858029
1858059
1858108
1857903
1858009
1857954
1857999
1858051
1857992
1857958
1858012
1857976
1858006
1857975
1857942
1858006
1858000
1858053
1857947
1858073
1858024
1857979
1858084
1857995
1857970
1858011
1858078
1857966
1858024
1858051
1858014
1857969
1858033
1858056
1857960
1857979
1857972
1857915
1858025
1857953
1858053
1857960
1857989
1858067
1858051
1857973
1857966
1857987
1857974
1858006
1858056
1858120
1858114
1858002
1858022
1858016
1858084
1858064
1858012
1858033
1857946
1857993
1857995
1858096
1858105
1858127
1857960
1857983
1858027
1858008
1857897
1858091
1858003
1857976
1857996
1858011
1858050
1858007
1858018
1857984
1857953
1858104
1857964
1857998
1857956
1857987
1858033
1857972
1857994
1857979
1858097
1857974
1858000
1858035
1857994
1858100
1857992
1858060
1857984
1858030
1858083
1858021
1858009
1857957
1858052
1858056
1858101
1858051
1858021
1858053
1858063
1858055
1858132
1857997
1858072
1857977
1857982
1858071
1858046
1857996
1858002
1858022
1858023
1858032
1857990
1858067
1858072
1857899
1857972
1857950
1858059
1857948
1858046
1858074
1858040
1858034
1857978
1857935
1858024
1858057
1858050
1857974
1857923
1857953
1857995
1858053
1858058
1858041
1858015
1858053
1858126
1858068
1858004
1858112
1858004
1858123
1858076
1858052
1858017
1858047
1858041
1858036
1857987
1858029
1858095
1858059
1858132
1857979
1858116
1858044
1858013
1858010
1858072
1858050
1858074
1857982
1858061
1857991
1858077
1858086
1858021
1858076
1858032
1857973
1858089
1858035
1858029
1858091
1858028
1858035
1857987
1858032
1858069
1858009
1858064
1858073
1858020
1858057
1858034
1858000
1858043
1858084
1858104
1858017
1858030
1858015
1858026
1858046
1858070
1858092
1858109
1858017
1858068
1858001
1858050
1858069
1858013
1858007
1858062
1858048
1858160
1858030
1858148
1858027
1858078
1858034
1858086
1858049
1858122
1858044
1858020
1858102
1858032
1858112
1858094
1858059
1858096
1858057
1858069
1858093
1857911
1857952
1858074
1858056
1858103
1858147
1858138
1858052
1858075
1858072
1858046
1858001
1857983
1858065
1858012
1858061
1858164
1858043
1858106
1858055
1858050
1858096
1858055
1858140
1857977
1858090
1858013
1858032
1858013
1858117
1857985
1858068
1858014
1857960
1858131
1858174
1858032
1858003
1858017
1858076
1858026
1858130
1858139
1858108
1858087
1858094
1857987
1858061
1858083
1858064
1858058
1858029
1858127
1858137
1858049
1858035
1858105
1858120
1858106
1858067
1858061
1857993
1858025
1858078
1858012
1858000
1858148
1858081
1858126
1858102
1858142
1858152
1858049
1858097
1858021
1858076
1858091
1858091
1858083
1857981
1858042
1858162
1858095
1858058
1858081
1858054
1858062
1858049
1858088
1858013
1858077
1858178
1858138
1858058
1858017
1858021
1858107
1858066
1858096
1858057
1858063
1858070
1857964
1858076
1858068
1858128
1858107
1858136
1858087
1858079
1858077
1858084
1858004
1858020
1858123
1858147
1858034
1858141
1858037
1857979
1858077
1858102
1858055
1858052
1858057
1857936
1858065
1858075
1858120
1858131
1858023
1858055
1858114
1858095
1858046
1858168
1858064
1858013
1858099
1858079
1858030
1858045
1858082
1858045
1858055
1858060
1857998
1858028
1858039
1858072
1858060
1858103
1858117
1858066
1858100
1858123
1858154
1858136
1858138
1858112
1858098
1858113
1858116
1858030
1858197
1858165
1858068
1858108
1858018
1858004
1858148
1858085
1858110
1858113
1858038
1858137
1858054
1858060
1858112
1858064
1858032
1858058
1858105
1858161
1858098
1858060
1858060
1858109
1858053
1858024
1858114
1858157
1858174
1858113
1858127
1858108
1858131
1858124
1858053
1858095
1858085
1858046
1858045
1858027
1858100
1858075
1858074
1858070
1858059
1858053
1858157
1858104
1858133
1858046
1858184
1858089
1858199
1858039
1858067
1858111
1858072
1858061
1858046
1858202
1858111
1858106
1858105
1858095
1858053
1858192
1858148
1857958
1858136
1858102
1858132
1858078
1858152
1858044
1858141
1858075
1858097
1858094
1858117
1858085
1858075
1858064
1858070
1858148
1858147
1858150
1858023
1858162
1858182
1858133
1858132
1858203
1858180
1858068
1858070
1858129
1858098
1858108
1858054
1858125
1858040
1858055
1858181
1858105
1858043
1858076
1858188
1858071
1858094
1858124
1858036
1858157
1858045
1858162
1858116
1858186
1858176
1858111
1858116
1858079
1858099
1858098
1858144
1858091
1857999
1858104
1858039
1858145
1858070
1858032
1858073
1858137
1858127
1858055
1858157
1858112
1858116
1858090
1858104
1858045
1858127
1858137
1858053
1858181
1858181
1858102
1858084
1858111
1858101
1858162
1858045
1858048
1858113
1858147
1858056
1858090
1858065
1858163
1858058
1858162
1858082
1858030
1858149
1858221
1858071
1858088
1858133
1858119
1858112
1858070
1858161
1858076
1858088
1858097
1858057
1858074
1858192
1858089
1858047
1858088
1858099
1858165
1858168
1858123
1858076
1858164
1858158
1858197
1858050
1858097
1858180
1858100
1858095
1858134
1858099
1858240
1858097
1858181
1858036
1858149
1858050
1858150
1858177
1858136
1858129
1858200
1858146
1858073
1858052
1858161
1858166
1858083
1858170
1858143
1858250
1858121
1858145
1858148
1858229
1858157
1858155
1858102
1858151
1858179
1858109
1858186
1858090
1858066
1858117
1858139
1858177
1858133
1858054
1858144
1858146
1858135
1858132
1858154
1858116
1858076
1858175
1858125
1858219
1858186
1858085
1858123
1858128
1858138
1858190
1858150
1858193
1858110
1858141
1858181
1858148
1858093
1858152
1858248
1858107
1858203
1858055
1858140
1858207
1858093
1858103
1858148
1858148
1858123
1858201
1858168
1858151
1858110
1858090
1858139
1858067
1858112
1858146
1858217
1858191
1858076
1858263
1858189
1858141
1858187
1858225
1858101
1858168
1858095
1858256
1858160
1858197
1858139
1858160
1858152
1858260
1858143
1858116
1858258
1858152
1858275
1858155
1858163
1858252
1858218
1858234
1858038
1858153
1858173
1858171
1858118
1858167
1858172
1858195
1858155
1858203
1858200
1858142
1858146
1858145
1858162
1858072
1858152
1858054
1858164
1858149
1858109
1858078
1858206
1858178
1858128
1858127
1858200
1858135
1858178
1858188
1858129
1858072
1858118
1858215
1858204
1858169
1858117
1858268
1858164
1858247
1858177
1858108
1858099
1858276
1858170
1858202
1858161
1858195
1858175
1858264
1858199
1858248
1858112
1858136
1858167
1858148
1858194
1858186
1858128
1858105
1858206
1858220
1858217
1858155
1858179
1858220
1858216
1858220
1858225
1858182
1858138
1858273
1858138
1858199
1858246
1858179
1858223
1858194
1858171
1858204
1858205
1858162
1858165
1858151
1858191
1858168
1858205
1858182
1858219
1858137
1858141
1858108
1858298
1858197
1858307
1858157
1858264
1858179
1858195
1858107
1858151
1858182
1858254
1858136
1858232
1858193
1858097
1858119
1858221
1858177
1858171
1858173
1858229
1858170
1858194
1858190
1858180
1858126
1858149
1858135
1858194
1858159
1858189
1858212
1858203
1858183
1858125
1858080
1858297
1858136
1858164
1858179
1858208
1858245
1858180
1858210
1858186
1858135
1858181
1858157
1858125
1858236
1858146
1858136
1858208
1858204
1858195
1858320
1858202
1858207
1858214
1858121
1858115
1858177
1858156
1858181
1858223
1858181
1858212
1858089
1858180
1858189
1858241
1858232
1858269
1858215
1858203
1858209
1858138
1858208
1858144
1858110
1858171
1858193
1858122
1858182
1858217
1858184
1858196
1858152
1858196
1858179
1858169
1858215
1858130
1858088
1858231
1858189
1858228
1858156
1858202
1858188
1858239
1858244
1858150
1858206
1858179
1858128
1858227
1858184
1858203
1858293
1858263
1858201
1858211
1858138
1858253
1858198
1858187
1858163
1858292
1858191
1858241
1858073
1858231
1858226
1858161
1858194
1858173
1858187
1858242
1858175
1858166
1858178
1858204
1858200
1858150
1858254
1858176
1858223
1858242
1858273
1858338
1858249
1858250
1858223
1858263
1858227
1858194
1858167
1858219
1858273
1858184
1858307
1858211
1858291
1858224
1858166
1858262
1858235
1858243
1858102
1858207
1858197
1858225
1858309
1858173
1858216
1858171
1858212
1858189
1858237
1858336
1858186
1858230
1858197
1858243
1858216
1858239
1858269
1858234
1858269
1858215
1858157
1858267
1858194
1858208
1858184
1858345
1858144
1858310
1858280
1858210
1858278
1858204
1858250
1858320
1858219
1858223
1858230
1858277
1858233
1858256
1858227
1858224
1858183
1858180
1858239
1858228
1858317
1858281
1858172
1858208
1858275
1858223
1858267
1858122
1858224
1858175
1858279
1858234
1858220
1858246
1858160
1858259
1858231
1858184
1858256
1858162
1858293
1858165
1858151
1858180
1858147
1858216
1858250
1858274
1858258
1858249
1858319
1858229
1858217
1858161
1858246
1858272
1858308
1858233
1858247
1858313
1858331
1858288
1858251
1858291
1858246
1858232
1858214
1858260
1858248
1858252
1858263
1858245
1858227
1858197
1858205
1858232
1858213
1858239
1858200
1858147
1858202
1858256
1858296
1858306
1858190
1858282
1858303
1858230
1858249
1858220
1858214
1858329
1858198
1858303
1858207
1858260
1858198
1858178
1858267
1858221
1858191
1858257
1858265
1858136
1858158
1858241
1858236
1858238
1858186
1858229
1858228
1858244
1858298
1858317
1858286
1858232
1858197
1858300
1858227
1858255
1858258
1858279
1858295
1858219
1858182
1858241
1858246
1858314
1858255
1858255
1858236
1858254
1858242
1858226
1858228
1858165
1858188
1858322
1858259
1858345
1858299
1858202
1858224
1858286
1858307
1858314
1858272
1858328
1858224
1858228
1858278
1858238
1858316
1858192
1858281
1858253
1858260
1858288
1858213
1858220
1858258
1858216
1858278
1858262
1858251
1858241
1858294
1858233
1858198
1858241
1858217
1858227
1858286
1858316
1858228
1858283
1858267
1858249
1858218
1858174
1858330
1858380
1858253
1858255
1858260
1858276
1858230
1858288
1858274
1858299
1858290
1858164
1858337
1858278
1858286
1858201
1858302
1858325
1858269
1858237
1858288
1858261
1858255
1858166
1858311
1858324
1858286
1858335
1858313
1858200
1858274
1858236
1858333
1858321
1858305
1858254
1858267
1858271
1858232
1858225
1858362
1858232
1858287
1858299
1858310
1858312
1858265
1858262
1858318
1858292
1858304
1858366
1858242
1858315
1858341
1858274
1858305
1858278
1858262
1858244
1858321
1858239
1858202
1858265
1858293
1858264
1858267
1858237
1858276
1858254
1858272
1858367
1858197
1858259
1858280
1858307
1858241
1858345
1858267
1858291
1858277
1858358
1858226
1858370
1858331
1858286
1858333
1858284
1858264
1858234
1858178
1858294
1858216
1858364
1858308
1858383
1858262
1858286
1858341
1858299
1858293
1858235
1858320
1858315
1858204
1858172
1858327
1858270
1858280
1858296
1858282
1858249
1858213
1858353
1858213
1858159
1858225
1858369
1858315
1858230
1858307
1858244
1858309
1858244
1858270
1858298
1858242
1858275
1858267
1858308
1858309
1858429
1858320
1858289
1858315
1858333
1858253
1858246
1858287
1858209
1858374
1858249
1858367
1858343
1858249
1858258
1858257
1858263
1858390
1858274
1858249
1858337
1858246
1858245
1858269
1858324
1858292
1858199
1858321
1858367
1858237
1858287
1858234
1858259
1858331
1858322
1858282
1858337
1858351
1858326
1858359
1858391
1858285
1858225
1858306
1858221
1858327
1858343
1858356
1858320
1858399
1858167
1858312
1858320
1858309
1858333
1858334
1858295
1858296
1858257
1858235
1858354
1858266
1858216
1858263
1858256
1858309
1858326
1858299
1858350
1858285
1858337
1858377
1858393
1858251
1858262
1858385
1858339
1858286
1858245
1858336
1858301
1858329
1858325
1858299
1858245
1858318
1858363
1858408
1858316
1858303
1858348
1858281
1858242
1858307
1858290
1858245
1858395
1858321
1858290
1858279
1858428
1858326
1858364
1858323
1858330
1858369
1858348
1858269
1858315
1858258
1858320
1858310
1858308
1858317
1858362
1858209
1858290
1858262
1858306
1858352
1858328
1858267
1858293
1858338
1858338
1858287
1858268
1858297
1858365
1858350
1858332
1858305
1858272
1858271
1858249
1858287
1858290
1858395
1858289
1858367
1858343
1858434
1858340
1858307
1858240
1858333
1858320
1858383
1858303
1858253
1858364
1858324
1858352
1858305
1858330
1858349
1858263
1858421
1858268
1858268
1858317
1858350
1858278
1858305
1858274
1858393
1858390
1858251
1858304
1858308
1858268
1858273
1858392
1858271
1858294
1858249
1858385
1858340
1858371
1858325
1858333
1858272
1858421
1858397
1858353
1858266
1858349
1858337
1858388
1858361
1858318
1858302
1858352
1858367
1858381
1858432
1858372
1858352
1858431
1858320
1858291
1858225
1858287
1858293
1858332
1858298
1858363
1858428
1858289
1858312
1858295
1858372
1858275
1858326
1858335
1858311
1858395
1858335
1858465
1858337
1858312
1858283
1858313
1858310
1858272
1858373
1858347
1858396
1858431
1858302
1858304
1858367
1858279
1858343
1858392
1858340
1858304
1858372
1858367
1858331
1858241
1858306
1858318
1858223
1858299
1858465
1858330
1858294
1858290
1858358
1858362
1858373
1858360
1858368
1858366
1858290
1858339
1858357
1858383
1858343
1858291
1858382
1858337
1858359
1858390
1858325
1858260
1858353
1858381
1858357
1858381
1858352
1858364
1858403
1858373
1858359
1858391
1858351
1858381
1858358
1858372
1858308
1858242
1858412
1858319
1858372
1858342
1858372
1858414
1858341
1858302
1858349
1858445
1858412
1858316
1858356
1858366
1858407
1858366
1858217
1858326
1858371
1858269
1858302
1858397
1858384
1858349
1858328
1858379
1858330
1858335
1858404
1858363
1858327
1858401
1858335
1858384
1858393
1858404
1858354
1858299
1858458
1858312
1858387
1858385
1858388
1858422
1858474
1858322
1858318
1858288
1858439
1858292
1858396
1858325
1858424
1858285
1858363
1858357
1858349
1858303
1858409
1858291
1858329
1858356
1858452
1858396
1858436
1858360
1858379
1858327
1858388
1858330
1858323
1858383
1858360
1858371
1858402
1858310
1858413
1858296
1858370
1858374
1858365
1858372
1858327
1858343
1858380
1858290
1858378
1858401
1858339
1858321
1858331
1858331
1858407
1858469
1858328
1858311
1858346
1858399
1858302
1858417
1858378
1858403
1858301
1858388
1858373
1858431
1858380
1858447
1858430
1858292
1858450
1858436
1858374
1858282
1858450
1858299
1858304
1858413
1858410
1858308
1858360
1858337
1858345
1858336
1858414
1858286
1858310
1858466
1858384
1858447
1858353
1858336
1858295
1858410
1858279
1858377
1858325
1858400
1858372
1858369
1858418
1858368
1858325
1858389
1858328
1858311
1858412
1858398
1858437
1858335
1858453
1858434
1858380
1858417
1858382
1858305
1858395
1858434
1858445
1858334
1858408
1858320
1858357
1858411
1858352
1858375
1858401
1858386
1858358
1858361
1858387
1858332
1858332
1858360
1858355
1858257
1858320
1858445
1858269
1858350
1858367
1858327
1858404
1858281
1858335
1858422
1858368
1858359
1858333
1858326
1858409
1858330
1858363
1858418
1858367
1858295
1858325
1858442
1858447
1858402
1858384
1858429
1858422
1858417
1858391
1858395
1858401
1858486
1858424
1858421
1858415
1858477
1858337
1858410
1858390
1858393
1858412
1858406
1858429
1858440
1858400
1858367
1858458
1858423
1858345
1858376
1858424
1858307
1858399
1858347
1858330
1858444
1858481
1858311
1858486
1858339
1858433
1858355
1858401
1858404
1858428
1858379
1858323
1858296
1858340
1858379
1858432
1858438
1858348
1858346
1858441
1858421
1858406
1858415
1858361
1858331
1858380
1858383
1858405
1858487
1858402
1858375
1858359
1858467
1858406
1858501
1858434
1858307
1858379
1858475
1858443
1858430
1858465
1858406
1858437
1858408
1858445
1858346
1858399
1858417
1858418
1858476
1858363
1858423
1858438
1858415
1858465
1858457
1858505
1858470
1858378
1858442
1858499
1858482
1858431
1858422
1858352
1858520
1858474
1858435
1858366
1858359
1858418
1858417
1858370
1858462
1858364
1858484
1858423
1858407
1858438
1858429
1858325
1858437
1858404
1858386
1858510
1858396
1858428
1858426
1858409
1858434
1858487
1858401
1858367
1858424
1858419
1858467
1858498
1858427
1858426
1858394
1858453
1858555
1858408
1858427
1858477
1858425
1858392
1858337
1858459
1858395
1858438
1858344
1858455
1858425
1858507
1858325
1858483
1858357
1858442
1858361
1858440
1858445
1858436
1858487
1858414
1858477
1858462
1858395
1858431
1858428
1858383
1858462
1858336
1858416
1858390
1858413
1858456
1858447
1858470
1858458
1858503
1858389
1858407
1858418
1858469
1858446
1858406
1858374
1858450
1858381
1858448
1858420
1858473
1858431
1858461
1858464
1858410
1858452
1858465
1858369
1858424
1858471
1858411
1858436
1858351
1858444
1858379
1858380
1858356
1858465
1858359
1858411
1858426
1858442
1858463
1858475
1858387
1858374
1858470
1858452
1858449
1858387
1858528
1858381
1858356
1858457
1858374
1858443
1858354
1858380
1858466
1858451
1858463
1858372
1858412
1858443
1858417
1858527
1858491
1858446
1858498
1858566
1858443
1858428
1858433
1858382
1858435
1858448
1858486
1858440
1858541
1858420
1858365
1858441
1858457
1858468
1858553
1858397
1858385
1858404
1858459
1858446
1858453
1858486
1858495
1858413
1858386
1858373
1858480
1858328
1858407
1858513
1858412
1858475
1858405
1858477
1858440
1858371
1858505
1858460
1858358
1858556
1858417
1858424
1858451
1858473
1858480
1858524
1858432
1858445
1858502
1858505
1858505
1858450
1858479
1858381
1858435
1858436
1858425
1858460
1858446
1858469
1858471
1858416
1858459
1858557
1858393
1858382
1858420
1858467
1858437
1858475
1858471
1858390
1858511
1858416
1858519
1858461
1858463
1858403
1858484
1858441
1858526
1858377
1858400
1858534
1858425
1858386
1858488
1858446
1858471
1858467
1858539
1858461
1858533
1858353
1858398
1858354
1858476
1858479
1858389
1858441
1858491
1858436
1858495
1858525
1858485
1858480
1858430
1858491
1858470
1858459
1858502
1858409
1858466
1858452
1858466
1858380
1858425
1858484
1858460
1858479
1858456
1858462
1858481
1858472
1858439
1858471
1858493
1858411
1858400
1858446
1858429
1858487
1858519
1858456
1858433
1858417
1858441
1858557
1858524
1858449
1858416
1858464
1858523
1858357
1858442
1858372
1858381
1858558
1858446
1858519
1858403
1858489
1858424
1858453
1858463
1858431
1858547
1858461
1858465
1858469
1858482
1858526
1858399
1858460
1858448
1858496
1858455
1858430
1858418
1858497
1858408
1858497
1858521
1858503
1858511
1858593
1858461
1858406
1858504
1858487
1858456
1858393
1858350
1858360
1858457
1858412
1858447
1858504
1858428
1858515
1858536
1858521
1858457
1858523
1858351
1858489
1858508
1858570
1858471
1858451
1858485
1858459
1858458
1858534
1858454
1858492
1858501
1858458
1858436
1858476
1858563
1858581
1858454
1858397
1858372
1858528
1858428
1858561
1858519
1858383
1858455
1858503
1858509
1858399
1858546
1858497
1858424
1858595
1858457
1858499
1858516
1858464
1858455
1858498
1858437
1858446
1858569
1858509
1858524
1858426
1858420
1858451
1858411
1858453
1858509
1858556
1858485
1858466
1858508
1858448
1858454
1858473
1858480
1858460
1858458
1858444
1858511
1858474
1858488
1858534
1858514
1858574
1858448
1858419
1858440
1858517
1858460
1858492
1858512
1858514
1858523
1858515
1858462
1858487
1858420
1858473
1858434
1858396
1858474
1858524
1858474
1858492
1858567
1858490
1858416
1858448
1858501
1858471
1858479
1858495
1858487
1858517
1858507
1858456
1858523
1858440
1858526
1858555
1858492
1858407
1858562
1858497
1858473
1858396
1858433
1858533
1858466
1858485
1858451
1858474
1858460
1858540
1858451
1858508
1858491
1858538
1858564
1858416
1858476
1858459
1858502
1858514
1858474
1858480
1858441
1858525
1858510
1858487
1858467
1858529
1858516
1858477
1858599
1858499
1858450
1858557
1858471
1858483
1858489
1858556
1858480
1858519
1858510
1858554
1858458
1858473
1858578
1858541
1858551
1858481
1858564
1858547
1858435
1858515
1858491
1858535
1858503
1858468
1858543
1858573
1858432
1858519
1858489
1858445
1858528
1858531
1858508
1858418
1858569
1858549
1858568
1858497
1858547
1858499
1858484
1858478
1858441
1858458
1858590
1858621
1858505
1858554
1858487
1858484
1858501
1858540
1858523
1858509
1858513
1858500
1858425
1858472
1858493
1858606
1858550
1858465
1858597
1858511
1858548
1858527
1858486
1858617
1858591
1858482
1858591
1858528
1858489
1858527
1858437
1858520
1858445
1858521
1858440
1858461
1858508
1858496
1858489
1858461
1858575
1858412
1858482
1858469
1858544
1858431
1858471
1858493
1858541
1858463
1858494
1858545
1858581
1858537
1858534
1858516
1858454
1858462
1858512
1858513
1858523
1858488
1858549
1858503
1858478
1858491
1858519
1858528
1858537
1858561
1858506
1858568
1858528
1858565
1858430
1858545
1858528
1858477
1858437
1858492
1858528
1858498
1858555
1858534
1858594
1858460
1858542
1858510
1858611
1858456
1858574
1858547
1858488
1858574
1858483
1858541
1858472
1858539
1858530
1858500
1858524
1858518
1858394
1858479
1858608
1858587
1858569
1858514
1858553
1858619
1858611
1858567
1858478
1858475
1858511
1858468
1858519
1858573
1858526
1858491
1858553
1858623
1858473
1858555
1858582
1858513
1858552
1858510
1858571
1858523
1858616
1858528
1858534
1858580
1858509
1858566
1858523
1858501
1858529
1858466
1858540
1858501
1858565
1858472
1858572
1858503
1858538
1858545
1858487
1858446
1858535
1858508
1858488
1858575
1858514
1858538
1858507
1858646
1858499
1858540
1858545
1858542
1858555
1858562
1858522
1858612
1858497
1858558
1858446
1858624
1858583
1858566
1858596
1858617
1858531
1858495
1858508
1858527
1858565
1858579
1858500
1858541
1858456
1858512
1858563
1858500
1858534
1858573
1858567
1858504
1858532
1858523
1858510
1858644
1858491
1858599
1858483
1858470
1858567
1858550
1858528
1858550
1858596
1858652
1858652
1858588
1858540
1858639
1858478
1858526
1858668
1858583
1858571
1858507
1858460
1858573
1858562
1858520
1858621
1858560
1858557
1858606
1858528
1858529
1858566
1858562
1858570
1858560
1858601
1858512
1858611
1858512
1858554
1858563
1858578
1858485
1858546
1858588
1858565
1858587
1858532
1858596
1858591
1858494
1858520
1858513
1858542
1858542
1858482
1858549
1858520
1858545
1858478
1858599
1858507
1858640
1858635
1858573
1858524
1858513
1858560
1858560
1858583
1858506
1858542
1858537
1858587
1858537
1858520
1858574
1858605
1858530
1858504
1858564
1858493
1858608
1858569
1858650
1858526
1858597
1858498
1858568
1858635
1858518
1858477
1858570
1858566
1858559
1858622
1858571
1858618
1858570
1858595
1858604
1858491
1858488
1858566
1858621
1858599
1858591
1858546
1858585
1858644
1858522
1858514
1858565
1858548
1858485
1858533
1858550
1858535
1858570
1858625
1858634
1858575
1858599
1858599
1858657
1858547
1858588
1858542
1858518
1858534
1858625
1858657
1858549
1858524
1858487
1858595
1858604
1858571
1858664
1858552
1858687
1858517
1858564
1858679
1858629
1858567
1858533
1858586
1858600
1858587
1858596
1858499
1858634
1858547
1858549
1858566
1858603
1858553
1858504
1858586
1858672
1858636
1858567
1858541
1858586
1858622
1858555
1858612
1858523
1858555
1858630
1858536
1858573
1858560
1858584
1858683
1858631
1858611
1858597
1858606
1858582
1858443
1858578
1858665
1858608
1858656
1858577
1858578
1858597
1858490
1858603
1858602
1858591
1858544
1858591
1858611
1858646
1858593
1858517
1858498
1858500
1858634
1858592
1858538
1858565
1858612
1858586
1858629
1858574
1858539
1858594
1858679
1858513
1858592
1858535
1858592
1858587
1858573
1858555
1858544
1858602
1858555
1858551
1858574
1858642
1858503
1858525
1858467
1858573
1858637
1858667
1858629
1858572
1858565
1858649
1858623
1858635
1858597
1858603
1858542
1858534
1858651
1858574
1858550
1858551
1858599
1858556
1858608
1858639
1858507
1858676
1858607
1858592
1858493
1858580
1858599
1858603
1858662
1858589
1858665
1858481
1858593
1858558
1858639
1858604
1858576
1858612
1858567
1858629
1858688
1858533
1858639
1858563
1858581
1858603
1858607
1858557
1858548
1858534
1858641
1858512
1858653
1858681
1858606
1858583
1858559
1858530
1858616
1858512
1858591
1858668
1858521
1858589
1858662
1858604
1858623
1858599
1858607
1858609
1858609
1858501
1858704
1858628
1858645
1858591
1858679
1858577
1858590
1858585
1858604
1858664
1858582
1858580
1858577
1858628
1858598
1858631
1858494
1858614
1858545
1858635
1858569
1858607
1858620
1858597
1858533
1858608
1858558
1858654
1858595
1858558
1858582
1858568
1858517
1858607
1858579
1858651
1858631
1858599
1858596
1858658
1858557
1858606
1858590
1858612
1858604
1858555
1858520
1858541
1858540
1858558
1858607
1858574
1858609
1858511
1858561
1858615
1858626
1858678
1858659
1858644
1858638
1858605
1858652
1858623
1858569
1858605
1858559
1858581
1858603
1858562
1858652
1858628
1858565
1858661
1858604
1858619
1858560
1858581
1858640
1858537
1858604
1858608
1858581
1858591
1858617
1858674
1858626
1858604
1858629
1858606
1858650
1858595
1858579
1858519
1858613
1858708
1858608
1858627
1858602
1858602
1858640
1858643
1858698
1858556
1858648
1858602
1858768
1858699
1858629
1858645
1858653
1858687
1858696
1858660
1858631
1858634
1858610
1858710
1858604
1858614
1858573
1858658
1858623
1858667
1858572
1858645
1858548
1858599
1858655
1858651
1858607
1858603
1858480
1858608
1858647
1858735
1858702
1858626
1858608
1858609
1858670
1858687
1858586
1858652
1858603
1858675
1858678
1858674
1858695
1858628
1858596
1858630
1858574
1858621
1858671
1858552
1858653
1858607
1858712
1858543
1858628
1858644
1858582
1858688
1858563
1858592
1858557
1858595
1858650
1858668
1858625
1858602
1858650
1858681
1858631
1858632
1858684
1858735
1858677
1858623
1858678
1858671
1858667
1858642
1858661
1858646
1858625
1858609
1858650
1858553
1858661
1858614
1858669
1858653
1858671
1858611
1858649
1858632
1858525
1858669
1858625
1858615
1858594
1858561
1858570
1858686
1858625
1858656
1858633
1858649
1858645
1858640
1858585
1858565
1858670
1858741
1858531
1858573
1858568
1858563
1858641
1858681
1858687
1858618
1858742
1858575
1858646
1858682
1858570
1858540
1858642
1858704
1858595
1858548
1858617
1858562
1858506
1858688
1858678
1858606
1858659
1858630
1858620
1858569
1858713
1858673
1858617
1858678
1858725
1858644
1858632
1858578
1858701
1858709
1858625
1858699
1858645
1858671
1858644
1858696
1858720
1858607
1858687
1858654
1858651
1858671
1858591
1858651
1858594
1858651
1858657
1858636
1858603
1858664
1858661
1858729
1858743
1858635
1858649
1858703
1858667
1858676
1858654
1858519
1858644
1858609
1858618
1858657
1858596
1858587
1858677
1858679
1858548
1858652
1858642
1858679
1858619
1858733
1858610
1858651
1858682
1858662
1858713
1858605
1858674
1858594
1858627
1858622
1858645
1858688
1858666
1858691
1858595
1858762
1858555
1858578
1858633
1858627
1858669
1858761
1858711
1858671
1858643
1858724
1858671
1858640
1858614
1858698
1858602
1858678
1858613
1858590
1858610
1858691
1858570
1858667
1858660
1858696
1858650
1858644
1858628
1858708
1858613
1858696
1858538
1858624
1858742
1858672
1858636
1858600
1858709
1858579
1858624
1858648
1858713
1858616
1858662
1858644
1858700
1858657
1858764
1858653
1858599
1858674
1858686
1858598
1858728
1858720
1858719
1858711
1858677
1858611
1858595
1858697
1858698
1858674
1858686
1858558
1858696
1858663
1858637
1858668
1858635
1858580
1858683
1858665
1858703
1858627
1858703
1858659
1858664
1858695
1858666
1858710
1858707
1858711
1858645
1858671
1858707
1858717
1858635
1858661
1858722
1858708
1858739
1858727
1858640
1858658
1858685
1858682
1858632
1858598
1858549
1858635
1858779
1858640
1858655
1858697
1858710
1858641
1858638
1858706
1858677
1858662
1858729
1858660
1858719
1858656
1858704
1858755
1858707
1858657
1858711
1858753
1858774
1858700
1858638
1858687
1858637
1858655
1858645
1858708
1858679
1858576
1858692
1858687
1858660
1858771
1858788
1858689
1858682
1858695
1858701
1858716
1858723
1858684
1858718
1858694
1858697
1858624
1858677
1858639
1858699
1858744
1858588
1858637
1858699
1858683
1858627
1858739
1858651
1858682
1858738
1858771
1858625
1858692
1858614
1858719
1858552
1858686
1858668
1858675
1858714
1858686
1858678
1858690
1858745
1858627
1858663
1858690
1858649
1858761
1858610
1858694
1858777
1858647
1858686
1858673
1858762
1858691
1858586
1858698
1858730
1858650
1858696
1858700
1858712
1858697
1858703
1858745
1858692
1858684
1858665
1858716
1858667
1858678
1858776
1858762
1858690
1858676
1858634
1858704
1858804
1858684
1858703
1858713
1858696
1858742
1858674
1858746
1858671
1858657
1858622
1858672
1858696
1858695
1858725
1858743
1858724
1858704
1858628
1858674
1858653
1858674
1858663
1858778
1858679
1858721
1858753
1858635
1858746
1858643
1858705
1858682
1858702
1858653
1858685
1858725
1858677
1858764
1858749
1858697
1858767
1858721
1858719
1858710
1858582
1858578
1858708
1858653
1858641
1858706
1858641
1858739
1858691
1858715
1858665
1858642
1858682
1858742
1858702
1858642
1858841
1858752
1858634
1858682
1858751
1858693
1858700
1858726
1858687
1858710
1858626
1858733
1858624
1858641
1858734
1858654
1858654
1858619
1858707
1858705
1858699
1858732
1858744
1858599
1858607
1858653
1858725
1858728
1858720
1858691
1858719
1858716
1858777
1858669
1858624
1858683
1858623
1858764
1858609
1858722
1858707
1858757
1858754
1858710
1858679
1858684
1858699
1858684
1858726
1858700
1858789
1858747
1858666
1858750
1858698
1858658
1858733
1858737
1858666
1858750
1858747
1858698
1858696
1858620
1858728
1858790
1858709
1858717
1858712
1858674
1858716
1858735
1858650
1858710
1858737
1858640
1858738
1858783
1858722
1858724
1858718
1858681
1858762
1858743
1858828
1858725
1858731
1858708
1858646
1858721
1858793
1858717
1858611
1858714
1858754
1858701
1858717
1858709
1858690
1858703
1858784
1858657
1858696
1858752
1858737
1858601
1858702
1858694
1858642
1858649
1858750
1858722
1858748
1858743
1858809
1858807
1858841
1858693
1858748
1858684
1858780
1858646
1858733
1858767
1858682
1858717
1858759
1858762
1858723
1858683
1858607
1858699
1858602
1858722
1858666
1858741
1858695
1858768
1858720
1858787
1858766
1858757
1858699
1858673
1858786
1858790
1858772
1858679
1858681
1858654
1858656
1858757
1858714
1858780
1858780
1858770
1858806
1858755
1858746
1858641
1858574
1858797
1858774
1858763
1858800
1858758
1858743
1858719
1858858
1858769
1858742
1858711
1858696
1858783
1858674
1858771
1858757
1858657
1858749
1858743
1858682
1858742
1858744
1858768
1858789
1858631
1858716
1858774
1858738
1858714
1858789
1858668
1858717
1858750
1858683
1858711
1858648
1858662
1858775
1858774
1858810
1858679
1858767
1858717
1858733
1858745
1858663
1858662
1858687
1858796
1858714
1858679
1858826
1858700
1858669
1858743
1858723
1858695
1858728
1858770
1858871
1858561
1858748
1858687
1858685
1858744
1858763
1858718
1858817
1858711
1858697
1858723
1858780
1858798
1858721
1858743
1858809
1858709
1858661
1858758
1858735
1858779
1858726
1858818
1858766
1858791
1858631
1858725
1858757
1858633
1858719
1858719
1858668
1858731
1858782
1858690
1858664
1858800
1858631
1858682
1858733
1858684
1858796
1858711
1858742
1858752
1858700
1858763
1858700
1858716
1858740
1858749
1858770
1858757
1858711
1858797
1858786
1858775
1858763
1858865
1858678
1858724
1858735
1858761
1858762
1858836
1858677
1858745
1858756
1858802
1858765
1858702
1858783
1858723
1858720
1858759
1858686
1858761
1858778
1858731
1858666
1858737
1858796
1858799
1858652
1858791
1858741
1858762
1858946
1858926
1858951
1858978
1858806
1858808
1863588
1858979
1858960
1858957
1859064
1859005
1859064
1859016
1858989
1859030
1859018
1859035
1858988
1858972
1859084
1859003
1858938
1858939
1859021
1858880
1858976
1858876
1858970
1858995
1858991
1858926
1858999
1858947
1858942
1858945
1859052
1859238
1858987
1858954
1858906
1858926
1858981
1858970
1858978
1858946
1858908
1858968
1858976
1858802
1859079
1858932
1858988
1858950
1858967
1858967
1858948
1858902
1858953
1858939
1859020
1858865
1858965
1858964
1858983
1858995
1858918
1858979
1858948
1858982
1858886
1859050
1858840
1859004
1859010
1858999
1859001
1858886
1858968
1858913
1858940
1858942
1858825
1858887
1858986
1858962
1858910
1858990
1859049
1858843
1858929
1858897
1859018
1858996
1858921
1858924
1858964
1858935
1859021
1858872
1858930
1858927
1859027
1858971
1858897
1858947
1859019
1858995
1858909
1858879
1858941
1858950
1858916
1858938
1858985
1858989
1858972
1858975
1858844
1858951
1859003
1858968
1858972
1859009
1858946
1858909
1858953
1858903
1858935
1858870
1858906
1858971
1858924
1859001
1858917
1858903
1858934
1858921
1858939
1858921
1858990
1858992
1859043
1858995
1858884
1858995
1858920
1858897
1858994
1858959
1858953
1858965
1859046
1859029
1858979
1858855
1858941
1858921
1859065
1858977
1858918
1858882
1858920
1858928
1858883
1858937
1859079
1858920
1858905
1859036
1859024
1858976
1858921
1858939
1859006
1859064
1858979
1859005
1859012
1858960
1858952
1858895
1859001
1858974
1858968
1859017
1858994
1858970
1858890
1858945
1858989
1859022
1858965
1858994
1858919
1858983
1858950
1859012
1858930
1859017
1858937
1859031
1858992
1858990
1859007
1858992
1859075
1858921
1858925
1858984
1858910
1858909
1859021
1859024
1858917
1859052
1858899
1859016
1858907
1858962
1859055
1858865
1858936
1859016
1859002
1858995
1858963
1858965
1858973
1858933
1859024
1858914
1859038
1858968
1859008
1859020
1859012
1859051
1858999
1858866
1858970
1859036
1858984
1858952
1858949
1858977
1858996
1858899
1858957
1858925
1858951
1858975
1859028
1858907
1859071
1859018
1859000
1859044
1858967
1858976
1858950
1858883
1858956
1858970
1859003
1859018
1858915
1859070
1859076
1858994
1858917
1859008
1858936
1858918
1858982
1858927
1858921
1858973
1859043
1858990
1858969
1859004
1858966
1858941
1858969
1859017
1858966
1858994
1858964
1859002
1858935
1858917
1858962
1858970
1858995
1859022
1858923
1858972
1859001
1858950
1858987
1858924
1858922
1858963
1858932
1859024
1858943
1859001
1858955
1859008
1858969
1858907
1859043
1858952
1858919
1859022
1858934
1858960
1859006
1858982
1858902
1858980
1858966
1858863
1858950
1858953
1858897
1859006
1858990
1859025
1858940
1858922
1858916
1858934
1858969
1858885
1859080
1858975
1859014
1858955
1858948
1858958
1859026
1858954
1859015
1858979
1859047
1858951
1858974
1859034
1858939
1859066
1858992
1858990
1858898
1858913
1858998
1858983
1858959
1858976
1858882
1858991
1859027
1858946
1858994
1858971
1859028
1859011
1858998
1858992
1858912
1858926
1859028
1859000
1858998
1859051
1858932
1858940
1858923
1858885
1858989
1858940
1858926
1859033
1859018
1858996
1858873
1858996
1858914
1858981
1859064
1858977
1858920
1859002
1858935
1859016
1858879
1858864
1858985
1858995
1858994
1859001
1858938
1859018
1859005
1858989
1858965
1858933
1858922
1859023
1858945
1858950
1858960
1858980
1859018
1859097
1858963
1858937
1858995
1859036
1858947
1858928
1859046
1859002
1858991
1859030
1858960
1858910
1858933
1859038
1859044
1859034
1858973
1858934
1859013
1859016
1858923
1859019
1858981
1859028
1859026
1859039
1858991
1859074
1858975
1859001
1858890
1858960
1859014
1859029
1858984
1858997
1859016
1859004
1858934
1858968
1858969
1858970
1858951
1859010
1858972
1858905
1858980
1858967
1859030
1859011
1858968
1859022
1858934
1859004
1859089
1858977
1859141
1859044
1858995
1859025
1858919
1859015
1858979
1859045
1858949
1858943
1858993
1859012
1858907
1859019
1859064
1858996
1858911
1859005
1859009
1858965
1859032
1858980
1858911
1858995
1859043
1858995
1858968
1858960
1859065
1858985
1858999
1858985
1858902
1858974
1858894
1859058
1858993
1858902
1858962
1858934
1859015
1858979
1858925
1858973
1859012
1858991
1859004
1859021
1858942
1858983
1859045
1858997
1859042
1858987
1858994
1859073
1858982
1858982
1859048
1859031
1859047
1859053
1858999
1858984
1858995
1858976
1858940
1858957
1858988
1858932
1859051
1859005
1859020
1859082
1858940
1858991
1859035
1858976
1858954
1859066
1859024
1858971
1858954
1858928
1859008
1858929
1858911
1858923
1859067
1859014
1859005
1858994
1858982
1858997
1859033
1858986
1858963
1858951
1858950
1858986
1858955
1859048
1858981
1858879
1859047
1858982
1859032
1858952
1858971
1858977
1859093
1859012
1858986
1859029
1858978
1858972
1858994
1858969
1859063
1858926
1858981
1858972
1859061
1859009
1859013
1859025
1859002
1859101
1859058
1859031
1859033
1859080
1858974
1859061
1858998
1858957
1858911
1859033
1858994
1859121
1859056
1859037
1859008
1859038
1858872
1859034
1859028
1859053
1858994
1859007
1859053
1858911
1859051
1859006
1859100
1859030
1858998
1858962
1859016
1859024
1858960
1858992
1858983
1859012
1859035
1858992
1859019
1859046
1859067
1859038
1859067
1859026
1859092
1858975
1859013
1859029
1858903
1858973
1858999
1859069
1859041
1859023
1859046
1858966
1859058
1858942
1859014
1858938
1859127
1859079
1859029
1859052
1859045
1859063
1859049
1859104
1859027
1859011
1858952
1858956
1859080
1858962
1858945
1859052
1859008
1858998
1859024
1859048
1859088
1859036
1859077
1859025
1859081
1858976
1858982
1859077
1858978
1858922
1858992
1859073
1859036
1858964
1859065
1859059
1859047
1858990
1859127
1859083
1859014
1858934
1859045
1859046
1859026
1858957
1859068
1859019
1859028
1859025
1859050
1859043
1859050
1858945
1859024
1859064
1858975
1858984
1859058
1859032
1858960
1859003
1859071
1859050
1859007
1859013
1859040
1858999
1859070
1859126
1859079
1859017
1859058
1858954
1859050
1859047
1858978
1858993
1859022
1859031
1859079
1859074
1859037
1858985
1859067
1859042
1858986
1859002
1859055
1859044
1859051
1859126
1859009
1858991
1859000
1858998
1859033
1859031
1858960
1859052
1859090
1859124
1859015
1858955
1859119
1858991
1859077
1859051
1859014
1858980
1859085
1859068
1859081
1859117
1859020
1859021
1859145
1859028
1859072
1858997
1859042
1859025
1859029
1859163
1859004
1859179
1859061
1859024
1859032
1858996
1859063
1859111
1859018
1859092
1859007
1859037
1859089
1859018
1859122
1859036
1859042
1859106
1859016
1858977
1859006
1858991
1859063
1859085
1859063
1858942
1859022
1859104
1858946
1859069
1859121
1859083
1858964
1859014
1859037
1859049
1859090
1859013
1859047
1859021
1859015
1858955
1859001
1859090
1859143
1859039
1859117
1859007
1859067
1859040
1859077
1859071
1859013
1859059
1859066
1859111
1859009
1859020
1859052
1859008
1859003
1859050
1859062
1859051
1859050
1859134
1859078
1859106
1859028
1859026
1859075
1859059
1858986
1859056
1858980
1859082
1859113
1859086
1859034
1859076
1859087
1859160
1859027
1859095
1859057
1859027
1859097
1858988
1859025
1859090
1859066
1859043
1859118
1859067
1859008
1859041
1859102
1859153
1859046
1859019
1859084
1859040
1859099
1859088
1859060
1859007
1859000
1859179
1859091
1859027
1859110
1859148
1859122
1859062
1859103
1859102
1859081
1859002
1859090
1859132
1859072
1859073
1859082
1859037
1858999
1859003
1859062
1859034
1858994
1859032
1859058
1859101
1859018
1859093
1859043
1859080
1859031
1859075
1859049
1859114
1859095
1859078
1859105
1859108
1859107
1859034
1859075
1858990
1859049
1859076
1858990
1858995
1859040
1859075
1859045
1859129
1859075
1858987
1859034
1859040
1859126
1859088
1859055
1859024
1859057
1859014
1859044
1859120
1859117
1859077
1859007
1859039
1859065
1859053
1859042
1859177
1859146
1859005
1859062
1859176
1859119
1859067
1859079
1859000
1859053
1858988
1859158
1859070
1859062
1859030
1859058
1859012
1859111
1859046
1859167
1859035
1859003
1859089
1859138
1859066
1859051
1859019
1859088
1859070
1859055
1859109
1859084
1859078
1859051
1859107
1859100
1859045
1858957
1859033
1859012
1859059
1859013
1859082
1859121
1859075
1859075
1859098
1859147
1859082
1859106
1859100
1859130
1859096
1859113
1859073
1859074
1859053
1858984
1859056
1859114
1859093
1858998
1859052
1859162
1859022
1859061
1859010
1859127
1859041
1859071
1859069
1859113
1859036
1859093
1859043
1859039
1859015
1859080
1859153
1859089
1859143
1859063
1858977
1859018
1859083
1859112
1858982
1859068
1859150
1859065
1859071
1859124
1859096
1859046
1859072
1859047
1859108
1859110
1859153
1859103
1859074
1859116
1859136
1859071
1859031
1859099
1859098
1859025
1859126
1859163
1859102
1859080
1859041
1859175
1859066
1859044
1859113
1859013
1859047
1859174
1859097
1859072
1859112
1858971
1859054
1859111
1859021
1859092
1859141
1859116
1859087
1859128
1859082
1859157
1859055
1859062
1859054
1859087
1859058
1859145
1859131
1859112
1859177
1859164
1859002
1859080
1858963
1859225
1859167
1859001
1859045
1859069
1859056
1859047
1859160
1859129
1859126
1859116
1859137
1859102
1859081
1859066
1859099
1859156
1859039
1859134
1859107
1859070
1858970
1859016
1859115
1859112
1859125
1859112
1859125
1859191
1859134
1859100
1859125
1859111
1859279
1859119
1859095
1859091
1862712
1856814
1857182
1857144
1857251
1857396
1857349
1857410
1857461
1857334
1857408
1857399
1857294
1857402
1872954
1865452
1865367
1865322
1865287
1865610
1865646
1865588
1865993
1865865
1865486
1865036
1865028
1864934
1864119
1863936
1864148
1863391
1864451
1864717
1864713
1864559
1864488
1864897
1864660
1865456
1860810
1860663
1860558
1860648
1860717
1860535
1860651
1860728
1860565
1860574
1860688
1860513
1860516
1860586
1860618
1860669
1860651
1860553
1860670
1860547
1860592
1860621
1860636
1860661
1860567
1860511
1860645
1860617
1860656
1860822
1858369
1864475
3458535
3713070
2336265
1872141
1855981
1856194
1856166
1856155
1856156
1856164
1856068
1856060
1855978
1856058
1856057
1856011
1856069
1856044
1856096
1856051
1856016
1855999
1856000
1856213
1856069
1856107
1855985
1856002
1856074
1856018
1856086
1856031
1856011
1856057
1855940
1856015
1857701
1856071
1856607
1867672
1866244
1866204
1866264
1866192
1866205
1866254
1866218
1866254
1866148
1866175
1866195
1866253
1866116
1866113
1866206
1866200
1866158
1866258
1866174
1866160
1866081
1866186
1866160
1866129
1866108
1866196
1866185
1866227
1866133
1866285
1866216
1866109
1866217
1866247
1866145
1866271
1866222
1866177
1866119
1866188
1866152
1866138
1866093
1866079
1866228
1866151
1866068
1866189
1866163
1866088
1866182
1866228
1866100
1866103
1866061
1866129
1866196
1866279
1866213
1866229
1866181
1866199
1866305
1866180
1866266
1866221
1866164
1866244
1866263
1866207
1866224
1866191
1866233
1866260
1866326
1866264
1866323
1866180
1866198
1867281
1866949
1869709
1870036
1869917
1869938
1869864
1869834
1869849
1869810
1869883
1869879
1869773
1869806
1869813
1869863
1869813
1869819
1869766
1869734
1869903
1869846
1869789
1869805
1869851
1869797
1869806
1869888
1869877
1869767
1869829
1869846
1869822
1869785
1869806
1869854
1869789
1869854
1869868
1869842
1869835
1869798
1869796
1869871
1869797
1869774
1869876
1869786
1869785
1869853
1869829
1869717
1869884
1869857
1869741
1869820
1869886
1869766
1869811
1869798
1869851
1869846
1869876
1869812
1869796
1869834
1869851
1869846
1869744
1869886
1869919
1869839
1869880
1869862
1869838
1869884
1869918
1869747
1869788
1869749
1869889
1869909
1869850
1869776
1869775
1869783
1869865
1869815
1869857
1869818
1869850
1869897
1869807
1869838
1869811
1869872
1869835
1869821
1869762
1869872
1869955
1869849
1869826
1869827
1869836
1869864
1869825
1869813
1869897
1869795
1869818
1869860
1869785
1869803
1869742
1869838
1869842
1869852
1869744
1869834
1869918
1869872
1869883
1869842
1869923
1869916
1869799
1869829
1869783
1869801
1869907
1869899
1869905
1869889
1869819
1869827
1869783
1869902
1869772
1869698
1869847
1869915
1869867
1869855
1869857
1869895
1869919
1869982
1869823
1869838
1869894
1869816
1869869
1869733
1869878
1869830
1869830
1869762
1869954
1869781
1869816
1869897
1869885
1869888
1869836
1869842
1869779
1869847
1869845
1869772
1869753
1869866
1869883
1869864
1869889
1869795
1869859
1869860
1869827
1869838
1869767
1869843
1869839
1869773
1869837
1869890
1869833
1869952
1869889
1869814
1869822
1869900
1869827
1869893
1869888
1869824
1869866
1869845
1869922
1869900
1869831
1869945
1869826
1869842
1869876
1869875
1869868
1869897
1869817
1869885
1869762
1869900
1869867
1869827
1869872
1869935
1869816
1869866
1869808
1869843
1869828
1869825
1869926
1869908
1869809
1869855
1869893
1869901
1869832
1869927
1869789
1869771
1869823
1869864
1869810
1869878
1869856
1869873
1869806
1869797
1869873
1869835
1869846
1869868
1869864
1869954
1869892
1869934
1869855
1869892
1869818
1869761
1869816
1869900
1869849
1869761
1869855
1869950
1869817
1869825
1869857
1869867
1869822
1869824
1869889
1869929
1869839
1869759
1869853
1869889
1869908
1869839
1869855
1869777
1869792
1869892
1869791
1869863
1869903
1869739
1869834
1869773
1869864
1869830
1869887
1869941
1869875
1869776
1869861
1869836
1869911
1869849
1869838
1869817
1869828
1869908
1869787
1869826
1869858
1869807
1869847
1869781
1869875
1869873
1869879
1869826
1869799
1869805
1869833
1869880
1869773
1869684
1869888
1869874
1869795
1869810
1869939
1869847
1869810
1869910
1869789
1869812
1869872
1869865
1869820
1869868
1869888
1869953
1869811
1869796
1869863
1869867
1869732
1869941
1869847
1869897
1869835
1869817
1869780
1869913
1869888
1869821
1869917
1869889
1869833
1869867
1869863
1869909
1869839
1869927
1869888
1869882
1869829
1869797
1869853
1869875
1869866
1869775
1869871
1869816
1869889
1869827
1869826
1869900
1869814
1869810
1869846
1869885
1869821
1869938
1869832
1869909
1869900
1869925
1869878
1869907
1869842
1869882
1869905
1869926
1869909
1869896
1869808
1869954
1869870
1869850
1869981
1869947
1869936
1869950
1869918
1869871
1869847
1869831
1869903
1869907
1869959
1869804
1869929
1869864
1869880
1869849
1869932
1869943
1869936
1869917
1869840
1869942
1869943
1869869
1869850
1869860
1869939
1869832
1869934
1869876
1869893
1869964
1869852
1869867
1869755
1869864
1869960
1869882
1869922
1869958
1869785
1869909
1869848
1869810
1869931
1869962
1869963
1869816
1869870
1869913
1869954
1869884
1869906
1869852
1869867
1869912
1869898
1869958
1869816
1869831
1869846
1869892
1869921
1869862
1869995
1869956
1869833
1869881
1869946
1869901
1869796
1869913
1869915
1869904
1869793
1869859
1869914
1869989
1869976
1869839
1869856
1869933
1869944
1869894
1869917
1869980
1869953
1869816
1869929
1869799
1869840
1869844
1869837
1869853
1869937
1869887
1869902
1869804
1869928
1869920
1869902
1869888
1869934
1869786
1869772
1869880
1869854
1869868
1869885
1869860
1869918
1869826
1869904
1869955
1869935
1869915
1869886
1869927
1869807
1869950
1869945
1869889
1869789
1869815
1869924
1869820
1869827
1869838
1869829
1869862
1869883
1869836
1869842
1869920
1869881
1869812
1869877
1869885
1869811
1869843
1869874
1869821
1869932
1869834
1869800
1869787
1869815
1869808
1869794
1869902
1869765
1869788
1869792
1869754
1869812
1869796
1869861
1869870
1869778
1869788
1869909
1869871
1869975
1869940
1869941
1869951
1869850
1869780
1869894
1869849
1869914
1869849
1869836
1869786
1869853
1869856
1869877
1869849
1869921
1869860
1869815
1869911
1869773
1869887
1869833
1869967
1869839
1869826
1869888
1869889
1869806
1869936
1869901
1869879
1869805
1869922
1869903
1869862
1869914
1869956
1869969
1869860
1869936
1869839
1869932
1869851
1869914
1869892
1869892
1869938
1869930
1869825
1869874
1869909
1869932
1869873
1869833
1870012
1869873
1869882
1869902
1869942
1869927
1869900
1869883
1869933
1869884
1869787
1869968
1869907
1869905
1869913
1869813
1869851
1869830
1869869
1869879
1869905
1869829
1869916
1869830
1869817
1869835
1869914
1869883
1869804
1869861
1869948
1869855
1869869
1869783
1869851
1869816
1869829
1869921
1869817
1869953
1869813
1869834
1869846
1869863
1869904
1869784
1869921
1869914
1869864
1869885
1869846
1869928
1869845
1869849
1869794
1869859
1869870
1869882
1869924
1869944
1869811
1869823
1869846
1869938
1869937
1869840
1869855
1869962
1869739
1869893
1869837
1869852
1869836
1869907
1869870
1869894
1869917
1869805
1869870
1869911
1869955
1869959
1869863
1869817
1869831
1869884
1869873
1869862
1869796
1869855
1869943
1869889
1869900
1869870
1869901
1869763
1869850
1869909
1869851
1869965
1869922
1869891
1869780
1869894
1869790
1869856
1869934
1869871
1869885
1869811
1869845
1869929
1869906
1869866
1869844
1869847
1869922
1869883
1870048
1869886
1869954
1869903
1869818
1869817
1869923
1869865
1869846
1869812
1869877
1869867
1869935
1869833
1869958
1869952
1869902
1869946
1869898
1869861
1869921
1869902
1869884
1869930
1869823
1869922
1869857
1869909
1869957
1869867
1869910
1869859
1869918
1869889
1869864
1869946
1869814
1869899
1869905
1869886
1869876
1869909
1869845
1869828
1869973
1869917
1869842
1869879
1869866
1869861
1869844
1869880
1870013
1869836
1869897
1869839
1869881
1869874
1869814
1869897
1869883
1869859
1869906
1869975
1869936
1869977
1869911
1869865
1869939
1869951
1869877
1869979
1869925
1869830
1869993
1869897
1869921
1869877
1869923
1869949
1869946
1869892
1869903
1869865
1869881
1869911
1869867
1869904
1869958
1869867
1869930
1869829
1869968
1869860
1869935
1869877
1869874
1869852
1869987
1870081
1869967
1869845
1869941
1869910
1869936
1869885
1869909
1869950
1869914
1870010
1869975
1869914
1869943
1869912
1869879
1869974
1869896
1869843
1869909
1869933
1869914
1869923
1869966
1869838
1869908
1869871
1869928
1869868
1869893
1869915
1870055
1869938
1869983
1869936
1869952
1869972
1869972
1869965
1869962
1869935
1869908
1869973
1869901
1869965
1869945
1870006
1869941
1869903
1869889
1869912
1869910
1869949
1869937
1869868
1869913
1869964
1869838
1869990
1870049
1869974
1869921
1869936
1869925
1869934
1869951
1869904
1869962
1869935
1870051
1869906
1869979
1869873
1869886
1869927
1869920
1869863
1869943
1869886
1869989
1869945
1869987
1869937
1869948
1870010
1869877
1869991
1869892
1869966
1870026
1870056
1869924
1869882
1869988
1870002
1869998
1869968
1869972
1869964
1869934
1869876
1869927
1869956
1869899
1869938
1869894
1869965
1870037
1870017
1869923
1869842
1869876
1869973
1869963
1869930
1869995
1869830
1869968
1870025
1869915
1869907
1869905
1869940
1869867
1869944
1870017
1870017
1870041
1869977
1869872
1869904
1870051
1870006
1869938
1869925
1869957
1869933
1869855
1869928
1869875
1869940
1869838
1869852
1869878
1869938
1869770
1869974
1869960
1869914
1869937
1869872
1869939
1869969
1869909
1869984
1869893
1869901
1869917
1869976
1869930
1869907
1870012
1869971
1869948
1869902
1869963
1870001
1869866
1870007
1869873
1869926
1869935
1869987
1870032
1869931
1869932
1869845
1869906
1869976
1869832
1869888
1869860
1870032
1869872
1869899
1869884
1869921
1869893
1870005
1869902
1869895
1869987
1869935
1869831
1869902
1869947
1869893
1869989
1869911
1869911
1870009
1869967
1869865
1869921
1869889
1869997
1869943
1869991
1869867
1869928
1869945
1869951
1869897
1870003
1869921
1869909
1870015
1869942
1869960
1869977
1869984
1869851
1869901
1869870
1869820
1869915
1870030
1869972
1869908
1869988
1869864
1869889
1870022
1869875
1869915
1869922
1870010
1869885
1869914
1869926
1869950
1869926
1869970
1870009
1869864
1869940
1870014
1869957
1870000
1870037
1869900
1869978
1869951
1869887
1869968
1869920
1870023
1870037
1869979
1870010
1869984
1869985
1869973
1870074
1870010
1870005
1870034
1870006
1869999
1869971
1869960
1870020
1869923
1870023
1870027
1869836
1869887
1869930
1869936
1870043
1869943
1870001
1869982
1870001
1870072
1870000
1869935
1869959
1869926
1869982
1869979
1869953
1869961
1869962
1869920
1870054
1869935
1869939
1869940
1869971
1869857
1869876
1869958
1869987
1869926
1869925
1869926
1870004
1869872
1869898
1869911
1869952
1869888
1869909
1870029
1870001
1869788
1869912
1869922
1869893
1869900
1870006
1869757
1869938
1869891
1869812
1869935
1869899
1869960
1869925
1869973
1869891
1869874
1869949
1869946
1869897
1870045
1869943
1869869
1870046
1869960
1869932
1869881
1869935
1869938
1869982
1869895
1870028
1869986
1869927
1869956
1869950
1870005
1869929
1869904
1869924
1869965
1869919
1869917
1870058
1869919
1869886
1869889
1869965
1869928
1869934
1869851
1869918
1869860
1869952
1869917
1870010
1869945
1870035
1869952
1870041
1870007
1870039
1870039
1870034
1870001
1869957
1870036
1869927
1870029
1870056
1869883
1869902
1870008
1870026
1869935
1870007
1869953
1869979
1869996
1869893
1869938
1869875
1869918
1869859
1869953
1869998
1870027
1869956
1869900
1870020
1869962
1869868
1869969
1869942
1870059
1869924
1869983
1870033
1870030
1869954
1869915
1869852
1869961
1869983
1869998
1869951
1869946
1869925
1869973
1870022
1869867
1869942
1869994
1869977
1869874
1869959
1869948
1869900
1869971
1869912
1870035
1869964
1869932
1869923
1870001
1869925
1870026
1869953
1869988
1869933
1869984
1869967
1869973
1869950
1869959
1869997
1869984
1869914
1869941
1869981
1869978
1869948
1869984
1870043
1869934
1869999
1869959
1870072
1869992
1870071
1869936
1870004
1870079
1870053
1870015
1869957
1870012
1870019
1869916
1869984
1869996
1870049
1869938
1869898
1869980
1869956
1869941
1869902
1869980
1869943
1869888
1869925
1869860
1869997
1869823
1869946
1869906
1869871
1869861
1869927
1869936
1869920
1869898
1869882
1869928
1869920
1869936
1869910
1869934
1869886
1869946
1869943
1869993
1869933
1869922
1869951
1869924
1869936
1869909
1869918
1869968
1869856
1869944
1869857
1870038
1869951
1869921
1869915
1869916
1869906
1869936
1869935
1869892
1869996
1869942
1869984
1869990
1869974
1869901
1869969
1869927
1869959
1869930
1869960
1869951
1869880
1869908
1869937
1869988
1869983
1869859
1869914
1869954
1869876
1870018
1869910
1869982
1869936
1869968
1870013
1869966
1869952
1869883
1870033
1869916
1869955
1869932
1869973
1870058
1869937
1869977
1869951
1869938
1870129
1869993
1870002
1869990
1869951
1869907
1869978
1869937
1869979
1870013
1869918
1869973
1870115
1869972
1869869
1869900
1869931
1869970
1869933
1870001
1870016
1870035
1870032
1870056
1869973
1869992
1870003
1869964
1869976
1870085
1869988
1870041
1870027
1869979
1869876
1869997
1870034
1870052
1870051
1869997
1870022
1869965
1870088
1870064
1869952
1870002
1869976
1869990
1869993
1869928
1870027
1870004
1870031
1870035
1870001
1870059
1870045
1870119
1870025
1869964
1869980
1870061
1870025
1870014
1869993
1870029
1869966
1869991
1870022
1869983
1869988
1870000
1869828
1870053
1870004
1870041
1870042
1869984
1870037
1869992
1869935
1870027
1870060
1870021
1869975
1869970
1870044
1870032
1869964
1869913
1870049
1869999
1869961
1870020
1870018
1869975
1869994
1870033
1870101
1870121
1869988
1870049
1869899
1869982
1870002
1869969
1870006
1870043
1869929
1870030
1870050
1870035
1870082
1870043
1870117
1869996
1870060
1870084
1869972
1870043
1870052
1870013
1869989
1869935
1870061
1870068
1870021
1870026
1870016
1869952
1870011
1870108
1870051
1870082
1870059
1869984
1869943
1870047
1870008
1870045
1869996
1869957
1870010
1869962
1869992
1870017
1870047
1870093
1870085
1870058
1869919
1870095
1869956
1870008
1870032
1869939
1870056
1870013
1870033
1869963
1869991
1870061
1869993
1870007
1870067
1870043
1870035
1869986
1870026
1869993
1869998
1870133
1869982
1870091
1869988
1870055
1870005
1869957
1870045
1869956
1869994
1870065
1870038
1870026
1870061
1870010
1870017
1870021
1869990
1869928
1869944
1870075
1869945
1870021
1870002
1870087
1870087
1870054
1870021
1870009
1870118
1869997
1870022
1870014
1870081
1870013
1870005
1870057
1870004
1870018
1870025
1870046
1870043
1870086
1870051
1870052
1870109
1870066
1870060
1870098
1870080
1870030
1869991
1869938
1869974
1870001
1870036
1870010
1869989
1870005
1870115
1869994
1870056
1870009
1870039
1869988
1870031
1870033
1870013
1870063
1870063
1869989
1869992
1870010
1870087
1870052
1870044
1870019
1870034
1870043
1869985
1870035
1870058
1869952
1869970
1870068
1870003
1870022
1870060
1870014
1870110
1869993
1870081
1869990
1870081
1869970
1869962
1870004
1869981
1869926
1869993
1870104
1870027
1870025
1870076
1870157
1870077
1870023
1870030
1870041
1870049
1869955
1869977
1870036
1870010
1870016
1870138
1870049
1870031
1870062
1870001
1870103
1870039
1869933
1870084
1870006
1870041
1870002
1869995
1870030
1870004
1870005
1869951
1870019
1869952
1869972
1870000
1869994
1870058
1869946
1869955
1870046
1869942
1870029
1870019
1870094
1870057
1870032
1870109
1870009
1870030
1870028
1869992
1870029
1869904
1870012
1869987
1870029
1870071
1870031
1870035
1870000
1870087
1870053
1869910
1870059
1870077
1869922
1869944
1870022
1870000
1869990
1870034
1870112
1870082
1870008
1870130
1870073
1870009
1870099
1870044
1869951
1870097
1869981
1870055
1870028
1870091
1869963
1870036
1870065
1870079
1869954
1870045
1870053
1870073
1870092
1870043
1870010
1870072
1870132
1870088
1870071
1870021
1870005
1869993
1869960
1870023
1870011
1869999
1869929
1870033
1870020
1870011
1870021
1869968
1870107
1870072
1870027
1870097
1869976
1870006
1870047
1870036
1869956
1870043
1870039
1870051
1870044
1870009
1870046
1870008
1870001
1870012
1870049
1870101
1870036
1870053
1870055
1870106
1869920
1870077
1870088
1870037
1870092
1869998
1869966
1870030
1870004
1870053
1870048
1870075
1870081
1870035
1870041
1870056
1870010
1870051
1870038
1870096
1870008
1870030
1870085
1869985
1869951
1869994
1870039
1870056
1870039
1869987
1870075
1870017
1869997
1869978
1870078
1870124
1869982
1870074
1870020
1869970
1870012
1870051
1870012
1870109
1870166
1870096
1870029
1870077
1870005
1870097
1870057
1870041
1870041
1870109
1870049
1870086
1870034
1870027
1869955
1870073
1870066
1870036
1870089
1870133
1870049
1870065
1870038
1870082
1870052
1870022
1870040
1870109
1870080
1870009
1870029
1869976
1870061
1870125
1870163
1870020
1870070
1869985
1870083
1870103
1870034
1870095
1870077
1870030
1869875
1870060
1869998
1870112
1870135
1869996
1870002
1870054
1869979
1869999
1870043
1870020
1869950
1869992
1869978
1869875
1869990
1869974
1869959
1869842
1869929
1869951
1870023
1870084
1869962
1869971
1870055
1869953
1870050
1869965
1869941
1869961
1870000
1869979
1870034
1869948
1869964
1869924
1869907
1870010
1870019
1870076
1870019
1869981
1869992
1869910
1869964
1869864
1869940
1870015
1869943
1869915
1869989
1870007
1870049
1869992
1869992
1870043
1870027
1869936
1869992
1869901
1869909
1869971
1869887
1870029
1869951
1869951
1869926
1870043
1869980
1869947
1870048
1870008
1869958
1869987
1870038
1870006
1869978
1869927
1869970
1869980
1870011
1869938
1870029
1869969
1869955
1869980
1870022
1870022
1870065
1869968
1869974
1869998
1870040
1869972
1870010
1869949
1870002
1869917
1870022
1869973
1869992
1869980
1870006
1870049
1870110
1870029
1870038
1870013
1870030
1870027
1869989
1869953
1870007
1870014
1870048
1870027
1869978
1870012
1870038
1869989
1869934
1870039
1870006
1870030
1869894
1869969
1869934
1869929
1869996
1870001
1870007
1869978
1870086
1869980
1869895
1870029
1870013
1869916
1869918
1869989
1869971
1870104
1870043
1869980
1869977
1870063
1870060
1870061
1869944
1870037
1870014
1869937
1869976
1869967
1869922
1870103
1870068
1869963
1869942
1870016
1869988
1870055
1870052
1870021
1870016
1869963
1869985
1869980
1869965
1870051
1869918
1870008
1870055
1870048
1870057
1869891
1870081
1870005
1870029
1870159
1869945
1869939
1869993
1870029
1869943
1870108
1870006
1869934
1870043
1870026
1869929
1870051
1870093
1870053
1870014
1870010
1870054
1870014
1870007
1869982
1869988
1869990
1870022
1869969
1869940
1870100
1870049
1869992
1870036
1869918
1870023
1869939
1870004
1869902
1869938
1869954
1870073
1869993
1869964
1870004
1870062
1870089
1869985
1870002
1870014
1869999
1869990
1870060
1869955
1869966
1870001
1870053
1869984
1869929
1869994
1869965
1870104
1870005
1870026
1869968
1870092
1870014
1870076
1870034
1870137
1870025
1869971
1869952
1870008
1869994
1870026
1870005
1870027
1870093
1869943
1869979
1869953
1870079
1870039
1869951
1870055
1870041
1870066
1870077
1870046
1870077
1869984
1870030
1870032
1870005
1870001
1870037
1870002
1870027
1870067
1870048
1870030
1869968
1869975
1870028
1870049
1869961
1870034
1869934
1869961
1870057
1870011
1870017
1869919
1869977
1869950
1869988
1870096
1870133
1869983
1869991
1870042
1870055
1869951
1870012
1869916
1870000
1870016
1870012
1870008
1869895
1869973
1870100
1870006
1869949
1869981
1869986
1869980
1870125
1870060
1870008
1870056
1870016
1869947
1869967
1869958
1870034
1869991
1870099
1869993
1870014
1869997
1870051
1869978
1870029
1870006
1870025
1870057
1870043
1869942
1869947
1870036
1870033
1869999
1869955
1869897
1870008
1870025
1870092
1870036
1870035
1870085
1870050
1869956
1869987
1870006
1870001
1870050
1870011
1870078
1870002
1870072
1870062
1870049
1869973
1870041
1870011
1870035
1869961
1870079
1870093
1870060
1870044
1870015
1870039
1870037
1870013
1869996
1870035
1870064
1869968
1870061
1870073
1870014
1870021
1870089
1870045
1870008
1870143
1870129
1870007
1870115
1870000
1870059
1870030
1870047
1870145
1869922
1869975
1870048
1869907
1870004
1870075
1870022
1869977
1870041
1870013
1869962
1870069
1870106
1869990
1869991
1869969
1870015
1870032
1869999
1870021
1869981
1870170
1870117
1870046
1869980
1870040
1870042
1870034
1870079
1870055
1869942
1870001
1869989
1870093
1870093
1869973
1869929
1870162
1869992
1870060
1869977
1870044
1870037
1870045
1870000
1870126
1870026
1869931
1870063
1869995
1870005
1870060
1870024
1870063
1869949
1870045
1870045
1870120
1870061
1870047
1870037
1870114
1870049
1869972
1870171
1870034
1869981
1869959
1870083
1870117
1870049
1870059
1870017
1869992
1870046
1870023
1870080
1869961
1870045
1870058
1870165
1869980
1870035
1870031
1870042
1870021
1870065
1870003
1870006
1870086
1869932
1870125
1870042
1870051
1869929
1870005
1869949
1869981
1870031
1870051
1870005
1869975
1870025
1870072
1869964
1870108
1870017
1870060
1870006
1870020
1870013
1870001
1870041
1870107
1870042
1870017
1870086
1870002
1870106
1870063
1870053
1870159
1870028
1870020
1870074
1869960
1869990
1870010
1870051
1870022
1870039
1870114
1869997
1870079
1869979
1870013
1870051
1870081
1870064
1870071
1870100
1870134
1870120
1870141
1870070
1870133
1870114
1870163
1870126
1870146
1870061
1870168
1870047
1870111
1870094
1869982
1870143
1870059
1870094
1870094
1870084
1870107
1870125
1870059
1870040
1870069
1870134
1870065
1870029
1870090
1870045
1869963
1870001
1869999
1870037
1870113
1870085
1870052
1870034
1870047
1870052
1870155
1870190
1870067
1870004
1870135
1870080
1870144
1870044
1870077
1870047
1870167
1870185
1869989
1870100
1870051
1869962
1870072
1870172
1870178
1870084
1870066
1870039
1870105
1870021
1870135
1870003
1870064
1870055
1870140
1870059
1870046
1870056
1870075
1870114
1870075
1870071
1870099
1870034
1870071
1870023
1870048
1870072
1870072
1870105
1870090
1870066
1870063
1870134
1870143
1870083
1870106
1870073
1870062
1870123
1870009
1869963
1870144
1870140
1870106
1870058
1870108
1870194
1870086
1870042
1870045
1870050
1870126
1870038
1870151
1870171
1870108
1870055
1870169
1870087
1870064
1870028
1870113
1870086
1870139
1870059
1870143
1870074
1870042
1870096
1869962
1870022
1870163
1870120
1870056
1870079
1869989
1870093
1870018
1870107
1870096
1870118
1870068
1870025
1870034
1870091
1870000
1870125
1870075
1870178
1870127
1870008
1870129
1870120
1870077
1870097
1870086
1870060
1870024
1870096
1870095
1870006
1870118
1870110
1870098
1870124
1870039
1870072
1870118
1870054
1870042
1870074
1870102
1870063
1870076
1870153
1870018
1870078
1870094
1870093
1870077
1870059
1870153
1870115
1870141
1870117
1870168
1870122
1870113
1870135
1870070
1870155
1870091
1870080
1870101
1870116
1870174
1870061
1870104
1870156
1870009
1870034
1870074
1870067
1870156
1870143
1870248
1870116
1870104
1870094
1870066
1870046
1870065
1870050
1870058
1870145
1870003
1870065
1870090
1870071
1870139
1870047
1870033
1870094
1870162
1870127
1870133
1870085
1870093
1870163
1870110
1870135
1870008
1870129
1870018
1870143
1870132
1870092
1870104
1870026
1870056
1870088
1870063
1870096
1870103
1870083
1870052
1870053
1870108
1870058
1869976
1870021
1870088
1869980
1870153
1870068
1870037
1870052
1870057
1870120
1870050
1869990
1870125
1870092
1870082
1870068
1870092
1870044
1870019
1870089
1870051
1870001
1870103
1870042
1870085
1870052
1869961
1870017
1870038
1870010
1870079
1870040
1869997
1870038
1869997
1870020
1869989
1870068
1869960
1870061
1869969
1870088
1870062
1870072
1870055
1870053
1870088
1870067
1870017
1870071
1870055
1870145
1870078
1870088
1870086
1870019
1870070
1870059
1870051
1870098
1870146
1870080
1870076
1870087
1870113
1870105
1870087
1870118
1870051
1870039
1870107
1870045
1870127
1870046
1870086
1870102
1870041
1869953
1870091
1870072
1870056
1870043
1870043
1870039
1870032
1870117
1870110
1870055
1870111
1870057
1870075
1870083
1870047
1870023
1870098
1870059
1870103
1870135
1870102
1870043
1870018
1870074
1870056
1870004
1870081
1870145
1870067
1870134
1870086
1870097
1870156
1870083
1870078
1869955
1870055
1870053
1870051
1870048
1870142
1870016
1870031
1870018
1870000
1870145
1870021
1870027
1870115
1870056
1870127
1870086
1870021
1870018
1870005
1870063
1870077
1870058
1870127
1870008
1870087
1870084
1870051
1870005
1870085
1870097
1870016
1870037
1869985
1870042
1870068
1870040
1870046
1870035
1870071
1870109
1870101
1870130
1870059
1870107
1869998
1870063
1870056
1870138
1870090
1869979
1870165
1870059
1870085
1870035
1870130
1869970
1869975
1870015
1870064
1870087
1870111
1870027
1870086
1870049
1870092
1870076
1870066
1870164
1870152
1870030
1870076
1870138
1870097
1870056
1870175
1870056
1870077
1870099
1870090
1870045
1870088
1870197
1870066
1870081
1870107
1870062
1870030
1870065
1870097
1869962
1869979
1870132
1870064
1870042
1870029
1870043
1870032
1870123
1870079
1870084
1870049
1870107
1870044
1870150
1870027
1870061
1870146
1870152
1870051
1870026
1870058
1870065
1870127
1870013
1870045
1870159
1870123
1870100
1870023
1870167
1870096
1870064
1870037
1870111
1870001
1870040
1870123
1870047
1870084
1870078
1870008
1870014
1870114
1869891
1869992
1870048
1870090
1870114
1870011
1870032
1870010
1870143
1870050
1870143
1870091
1870185
1870053
1870086
1870052
1870034
1870147
1870062
1870119
1870083
1870069
1870138
1870086
1870067
1870093
1870163
1870064
1870015
1870104
1870101
1870063
1870017
1870073
1870150
1870167
1870086
1870095
1869987
1870099
1870091
1870049
1870114
1870077
1870104
1870035
1870156
1870081
1870201
1870118
1870087
1870105
1870153
1870181
1870183
1870107
1870144
1870095
1870153
1870147
1870063
1870208
1870177
1870143
1870123
1870171
1870170
1870185
1870155
1870264
1870167
1870141
1870162
1870108
1870162
1870123
1870086
1870167
1870133
1870265
1870122
1870115
1870163
1870165
1870203
1870130
1870133
1870151
1870066
1870221
1870211
1870197
1870065
1870142
1870168
1870189
1870105
1870191
1870126
1870134
1870053
1870123
1870157
1870151
1870210
1870140
1870162
1870160
1870157
1870097
1870063
1870203
1870121
1870114
1870123
1870202
1870137
1870173
1870111
1870103
1870234
1870267
1870164
1870215
1870165
1870143
1870153
1870140
1870206
1870161
1870168
1870058
1870233
1870118
1870148
1870170
1870231
1870146
1870196
1870044
1870180
1870160
1870143
1870147
1870101
1870081
1870106
1870177
1870191
1870139
1870069
1870177
1870133
1870130
1870137
1870193
1870191
1870220
1870088
1870153
1870268
1870197
1870149
1870024
1870209
1870032
1870187
1870058
1870098
1870179
1870217
1870212
1870162
1870155
1870186
1870209
1870183
1870082
1870138
1870172
1870261
1870129
1870133
1870142
1870171
1870171
1870126
1870156
1870283
1870182
1870211
1870194
1870175
1870164
1870125
1870127
1870059
1870149
1870131
1870195
1870202
1870135
1870111
1870159
1870192
1870222
1870145
1870112
1870297
1870171
1870248
1870137
1870103
1870124
1870208
1870162
1870056
1870094
1870202
1870215
1870179
1870230
1870141
1870218
1870189
1870158
1870133
1870168
1870142
1870162
1870140
1870145
1870166
1870197
1870239
1870135
1870096
1870174
1870143
1870156
1870154
1870064
1870236
1870198
1870192
1870103
1870172
1870176
1870147
1870132
1870128
1870163
1870165
1870202
1870123
1870246
1870194
1870173
1870159
1870213
1870116
1870148
1870137
1870172
1870172
1870076
1870154
1870194
1870209
1870200
1870192
1870166
1870113
1870158
1870139
1870071
1870163
1870209
1870090
1870280
1870089
1870176
1870205
1870134
1870168
1870135
1870181
1870157
1870071
1870155
1870174
1870288
1870188
1870217
1870190
1870177
1870161
1870198
1870097
1870227
1870169
1870143
1870168
1870200
1870173
1870151
1870186
1870136
1870129
1870242
1870151
1870195
1870104
1870161
1870172
1870237
1870192
1870105
1870178
1870142
1870145
1870284
1870289
1870125
1870255
1870149
1870158
1870184
1870172
1870173
1870203
1870206
1870214
1870108
1870208
1870190
1870158
1870234
1870240
1870189
1870158
1870110
1870153
1870122
1870115
1870126
1870200
1870170
1870198
1870126
1870133
1870209
1870205
1870107
1870158
1870198
1870092
1870192
1870179
1870179
1870198
1870106
1870178
1870109
1870172
1870148
1870120
1870191
1870126
1870151
1870192
1870136
1870146
1870231
1870249
1870170
1870251
1870134
1870158
1870174
1870127
1870202
1870213
1870163
1870156
1870166
1870185
1870210
1870153
1870130
1870105
1870126
1870075
1870156
1870267
1870121
1870225
1870187
1870104
1870219
1870164
1870159
1870189
1870226
1870143
1870179
1870300
1870246
1870184
1870143
1870259
1870169
1870158
1870162
1870228
1870231
1870150
1870264
1870213
1870219
1870119
1870215
1870153
1870228
1870181
1870205
1870206
1870233
1870147
1870259
1870096
1870196
1870147
1870212
1870103
1870214
1870215
1870151
1870250
1870138
1870102
1870198
1870189
1870224
1870106
1870200
1870162
1870108
1870124
1870193
1870218
1870107
1870150
1870138
1870111
1870180
1870141
1870174
1870173
1870185
1870187
1870168
1870123
1870142
1870115
1870165
1870130
1870179
1870162
1870134
1870131
1870214
1870085
1870232
1870197
1870205
1870101
1870135
1870149
1870151
1870160
1870118
1870165
1870187
1870209
1870164
1870154
1870224
1870157
1870190
1870063
1870140
1870179
1870174
1870182
1870193
1870103
1870174
1870176
1870193
1870135
1870183
1870194
1870222
1870189
1870215
1870254
1870213
1870160
1870286
1870209
1870170
1870209
1870243
1870168
1870155
1870302
1870119
1870185
1870232
1870254
1870246
1870111
1870196
1870142
1870224
1870191
1870219
1870241
1870212
1870141
1870106
1870118
1870148
1870100
1870070
1870200
1870155
1870157
1870132
1870073
1870195
1870191
1870092
1870150
1870100
1870239
1870088
1870108
1870209
1870121
1870200
1870161
1870234
1870177
1870168
1870219
1870206
1870156
1870167
1870160
1870193
1870130
1870147
1870224
1870130
1870050
1870170
1870128
1870223
1870191
1870122
1870124
1870134
1870075
1870175
1870189
1870144
1870118
1870127
1870154
1870221
1870224
1870182
1870156
1870139
1870184
1870305
1870180
1870233
1870114
1870221
1870188
1870167
1870126
1870127
1870252
1870166
1870093
1870140
1870177
1870067
1870192
1870160
1870203
1870114
1870167
1870238
1870189
1870239
1870188
1870180
1870240
1870187
1870144
1870188
1870168
1870162
1870278
1870201
1870132
1870114
1870166
1870091
1870044
1870241
1870246
1870200
1870205
1870198
1870182
1870247
1870166
1870233
1870194
1870199
1870270
1870283
1870176
1870216
1870180
1870158
1870267
1870148
1870131
1870179
1870156
1870234
1870162
1870198
1870161
1870180
1870197
1870160
1870100
1870168
1870225
1870147
1870171
1870189
1870103
1870148
1870174
1870238
1870163
1870188
1870224
1870199
1870177
1870243
1870220
1870245
1870112
1870206
1870188
1870190
1870180
1870189
1870243
1870105
1870135
1870198
1870181
1870098
1870180
1870216
1870188
1870217
1870232
1870275
1870181
1870164
1870183
1870272
1870212
1870258
1870186
1870264
1870196
1870168
1870233
1870292
1870167
1870198
1870182
1870264
1869632
1869465
1869463
1869513
1869474
1869559
1869415
1869505
1869448
1869459
1869421
1869419
1869394
1869473
1869478
1869368
1869527
1869403
1869439
1869527
1869462
1869452
1869480
1869547
1869469
1869495
1869409
1869493
1869467
1869405
1869441
1869415
1869430
1869417
1869409
1869460
1869432
1869502
1869414
1869398
1869518
1869471
1869400
1869273
1869396
1869388
1869351
1869366
1869457
1869450
1869433
1869444
1869367
1869403
1869408
1869280
1869453
1869454
1869452
1869441
1869417
1869458
1869440
1869480
1869562
1869435
1869489
1869478
1869349
1869394
1869350
1869421
1869388
1869401
1869445
1869373
1869464
1869352
1869527
1869440
1869426
1869359
1869364
1869426
1869514
1869401
1869372
1869423
1869435
1869456
1869484
1869430
1869520
1869375
1869480
1869422
1869480
1869448
1869528
1869511
1869391
1869416
1869364
1869453
1869430
1869358
1869448
1869386
1869425
1869470
1869410
1869441
1869458
1869425
1869579
1869511
1869484
1869380
1869448
1869418
1869511
1869406
1869404
1869446
1869373
1869360
1869484
1869463
1869404
1869446
1869409
1869404
1869399
1869412
1869414
1869447
1869429
1869393
1869432
1869443
1869391
1869466
1869475
1869484
1869419
1869392
1869442
1869522
1869454
1869373
1869413
1869481
1869418
1869462
1869382
1869453
1869471
1869465
1869426
1869401
1869453
1869474
1869508
1869464
1869419
1869392
1869396
1869473
1869471
1869377
1869444
1869373
1869401
1869419
1869416
1869422
1869384
1869390
1869404
1869510
1869413
1869395
1869401
1869399
1869377
1869416
1869397
1869427
1869352
1869365
1869419
1869484
1869491
1869381
1869467
1869258
1869469
1869397
1869473
1869469
1869318
1869376
1869410
1869479
1869440
1869416
1869389
1869484
1869442
1869291
1869470
1869496
1869405
1869412
1869439
1869428
1869465
1869394
1869510
1869419
1869364
1869474
1869432
1869463
1869370
1869394
